# BITalino Recording
# Start Time,2026-02-22 20:15:00
# Frequency (Hz),100
# Active Ports,"1,2"
# Battery (%),96.52099609375
# Device Address,98:D3:C1:FD:ED:B7
# Total Samples,18000

Sequence,Timestamp,A1 (RAW) Port1,A2 (RAW) Port2
0,1771787700.127003,518,1
1,1771787700.1271129,518,1
2,1771787700.1272461,515,1
3,1771787700.127302,519,1
4,1771787700.12925,519,1
5,1771787700.130264,524,1
6,1771787700.165117,526,1
7,1771787700.16533,532,1
8,1771787700.165343,532,1
9,1771787700.1976352,536,1
10,1771787700.1976671,532,1
11,1771787700.201516,531,1
12,1771787700.201534,524,1
13,1771787700.233935,521,1
14,1771787700.233966,514,1
15,1771787700.236931,512,1
16,1771787700.2387671,504,1
17,1771787700.2752042,500,1
18,1771787700.277042,492,1
19,1771787700.2770538,489,1
20,1771787700.278854,484,1
21,1771787700.347125,484,1
22,1771787700.349196,480,1
23,1771787700.3492138,481,1
24,1771787700.418665,476,0
25,1771787700.418707,476,1
26,1771787700.420248,473,1
27,1771787700.449795,474,1
28,1771787700.450298,471,1
29,1771787700.4504352,472,1
30,1771787700.458954,468,1
31,1771787700.458976,469,1
32,1771787700.458982,466,0
33,1771787700.458993,465,0
34,1771787700.4589992,463,1
35,1771787700.459006,462,1
36,1771787700.459949,461,1
37,1771787700.4670131,463,0
38,1771787700.467029,463,1
39,1771787700.4685109,470,1
40,1771787700.5020008,478,1
41,1771787700.50212,492,1
42,1771787700.503814,510,1
43,1771787700.5351691,536,1
44,1771787700.535199,563,0
45,1771787700.53739,595,1
46,1771787700.569804,622,2
47,1771787700.569845,652,1
48,1771787700.576842,674,2
49,1771787700.576854,696,2
50,1771787700.6052742,705,2
51,1771787700.605301,714,2
52,1771787700.607368,715,2
53,1771787700.60738,715,2
54,1771787700.64604,705,2
55,1771787700.6460721,699,2
56,1771787700.646081,686,2
57,1771787700.655023,679,2
58,1771787700.718477,667,2
59,1771787700.718513,660,2
60,1771787700.7199502,646,2
61,1771787700.722446,636,1
62,1771787700.723638,620,1
63,1771787700.726039,606,1
64,1771787700.7260532,588,1
65,1771787700.728087,574,1
66,1771787700.760136,556,1
67,1771787700.7629519,548,1
68,1771787700.762988,535,1
69,1771787700.79357,528,1
70,1771787700.7936058,519,1
71,1771787700.8010361,519,1
72,1771787700.8010602,517,1
73,1771787700.840748,521,1
74,1771787700.84079,523,1
75,1771787700.842505,527,1
76,1771787700.8476539,527,0
77,1771787700.876375,531,1
78,1771787700.876415,530,1
79,1771787700.8801641,532,1
80,1771787700.880194,528,1
81,1771787700.910421,529,1
82,1771787700.9143949,524,1
83,1771787700.9144242,521,1
84,1771787700.947083,515,1
85,1771787700.947115,511,1
86,1771787700.950667,505,1
87,1771787700.951013,503,1
88,1771787701.023085,495,0
89,1771787701.03005,492,1
90,1771787701.0300732,484,1
91,1771787701.031801,480,0
92,1771787701.0318232,472,1
93,1771787701.033992,471,1
94,1771787701.036496,466,1
95,1771787701.036524,464,0
96,1771787701.0478,460,1
97,1771787701.047828,459,1
98,1771787701.0795362,455,1
99,1771787701.0795672,455,0
100,1771787701.081331,450,0
101,1771787701.1125782,450,0
102,1771787701.1126132,447,1
103,1771787701.115005,447,0
104,1771787701.144468,442,0
105,1771787701.1464372,442,1
106,1771787701.148761,440,0
107,1771787701.15627,441,0
108,1771787701.1845918,441,1
109,1771787701.188257,448,1
110,1771787701.1883159,452,1
111,1771787701.220729,463,1
112,1771787701.223648,476,1
113,1771787701.2237492,499,1
114,1771787701.223905,523,1
115,1771787701.231723,556,1
116,1771787701.320211,585,1
117,1771787701.320252,622,1
118,1771787701.320262,654,2
119,1771787701.358335,684,2
120,1771787701.3748832,703,1
121,1771787701.374913,721,2
122,1771787701.37616,728,2
123,1771787701.379414,734,2
124,1771787701.37944,732,2
125,1771787701.3807008,727,2
126,1771787701.383625,716,2
127,1771787701.383638,707,2
128,1771787701.386407,695,2
129,1771787701.386432,687,2
130,1771787701.389189,675,2
131,1771787701.389214,666,2
132,1771787701.420625,653,1
133,1771787701.423135,644,2
134,1771787701.423161,630,2
135,1771787701.4555829,618,1
136,1771787701.455612,603,1
137,1771787701.4578052,591,1
138,1771787701.462214,575,1
139,1771787701.4914649,566,1
140,1771787701.491505,554,0
141,1771787701.495289,548,1
142,1771787701.5246909,540,1
143,1771787701.526156,538,1
144,1771787701.528928,532,1
145,1771787701.528959,532,1
146,1771787701.564302,529,1
147,1771787701.5643442,533,1
148,1771787701.5659552,532,1
149,1771787701.622078,534,1
150,1771787701.6241841,532,1
151,1771787701.624204,534,1
152,1771787701.6261702,528,1
153,1771787701.628722,525,1
154,1771787701.631392,517,1
155,1771787701.631451,515,1
156,1771787701.664671,509,1
157,1771787701.6652422,507,1
158,1771787701.6652942,501,1
159,1771787701.698068,498,1
160,1771787701.698098,489,1
161,1771787701.699883,487,1
162,1771787701.702485,480,1
163,1771787701.731921,478,1
164,1771787701.735073,471,1
165,1771787701.7350998,467,1
166,1771787701.742192,460,0
167,1771787701.750601,457,1
168,1771787701.781416,450,0
169,1771787701.7836921,448,0
170,1771787701.7837,442,0
171,1771787701.816538,443,0
172,1771787701.81657,437,0
173,1771787701.826175,438,0
174,1771787701.8262122,435,0
175,1771787701.8556118,436,0
176,1771787701.855652,433,0
177,1771787701.8593862,436,0
178,1771787701.859405,435,0
179,1771787701.9221818,438,0
180,1771787701.924791,436,0
181,1771787701.924813,437,0
182,1771787701.9259489,434,0
183,1771787701.9307861,435,0
184,1771787701.930807,432,0
185,1771787701.930812,434,0
186,1771787701.9674082,430,0
187,1771787701.969433,429,0
188,1771787701.969462,425,0
189,1771787701.971492,427,0
190,1771787702.0031471,423,0
191,1771787702.003247,424,0
192,1771787702.0049841,421,0
193,1771787702.008565,424,0
194,1771787702.039927,423,1
195,1771787702.039985,427,0
196,1771787702.041972,424,0
197,1771787702.0732841,424,0
198,1771787702.0733151,422,0
199,1771787702.077104,424,0
200,1771787702.107115,424,0
201,1771787702.107168,429,0
202,1771787702.108937,435,0
203,1771787702.1157298,448,0
204,1771787702.144377,462,1
205,1771787702.1463602,484,1
206,1771787702.1485739,510,1
207,1771787702.157674,544,1
208,1771787702.1611829,575,1
209,1771787702.2182531,609,1
210,1771787702.218293,639,2
211,1771787702.220248,670,2
212,1771787702.22167,689,2
213,1771787702.2247949,707,2
214,1771787702.227131,713,2
215,1771787702.257128,719,2
216,1771787702.257327,717,2
217,1771787702.259412,715,2
218,1771787702.259437,704,2
219,1771787702.290294,696,2
220,1771787702.2938838,685,1
221,1771787702.2938979,676,2
222,1771787702.3257449,664,2
223,1771787702.325793,655,2
224,1771787702.3278878,639,1
225,1771787702.3329432,627,1
226,1771787702.361473,610,2
227,1771787702.361514,596,1
228,1771787702.362869,579,0
229,1771787702.395649,567,1
230,1771787702.3956878,553,1
231,1771787702.39889,547,1
232,1771787702.3991108,536,1
233,1771787702.430712,531,1
234,1771787702.4307551,526,1
235,1771787702.432441,526,1
236,1771787702.4656699,524,1
237,1771787702.465704,525,1
238,1771787702.467788,525,1
239,1771787702.479106,528,1
240,1771787702.5223758,529,1
241,1771787702.5251288,532,1
242,1771787702.5601459,531,1
243,1771787702.582573,532,1
244,1771787702.582592,529,1
245,1771787702.584773,527,1
246,1771787702.587007,521,1
247,1771787702.59011,519,1
248,1771787702.5901198,511,1
249,1771787702.5923321,508,1
250,1771787702.5923462,500,1
251,1771787702.5938659,496,1
252,1771787702.62609,487,1
253,1771787702.626125,483,1
254,1771787702.629555,476,1
255,1771787702.6645539,470,1
256,1771787702.6661499,460,1
257,1771787702.6661701,455,0
258,1771787702.6680331,446,1
259,1771787702.668054,444,0
260,1771787702.700781,438,0
261,1771787702.700831,438,0
262,1771787702.702909,433,0
263,1771787702.736245,434,0
264,1771787702.73628,431,0
265,1771787702.737609,433,0
266,1771787702.7402382,431,0
267,1771787702.771701,435,0
268,1771787702.776449,435,0
269,1771787702.77646,438,0
270,1771787702.8214998,435,1
271,1771787702.821527,435,0
272,1771787702.8215349,430,0
273,1771787702.823661,427,0
274,1771787702.825984,423,0
275,1771787702.830436,422,0
276,1771787702.861347,419,0
277,1771787702.861388,422,0
278,1771787702.8635929,420,0
279,1771787702.892024,422,0
280,1771787702.902926,420,0
281,1771787702.902946,422,0
282,1771787702.904879,419,0
283,1771787702.9334831,422,0
284,1771787702.936578,421,0
285,1771787702.941886,426,0
286,1771787702.966794,424,0
287,1771787702.9686568,425,0
288,1771787702.972908,424,0
289,1771787702.972924,426,0
290,1771787703.003844,425,0
291,1771787703.0116758,428,0
292,1771787703.011701,426,0
293,1771787703.011708,428,0
294,1771787703.041656,425,1
295,1771787703.041703,427,0
296,1771787703.0436668,423,0
297,1771787703.073014,424,0
298,1771787703.07448,422,0
299,1771787703.0746481,423,0
300,1771787703.1220832,424,0
301,1771787703.124162,431,0
302,1771787703.124186,439,0
303,1771787703.1261098,454,0
304,1771787703.12749,471,1
305,1771787703.131476,496,1
306,1771787703.161653,524,1
307,1771787703.1651561,557,1
308,1771787703.1651788,588,1
309,1771787703.195619,620,1
310,1771787703.19565,644,2
311,1771787703.197812,668,2
312,1771787703.205156,682,2
313,1771787703.233231,694,2
314,1771787703.2332659,694,2
315,1771787703.2332768,693,2
316,1771787703.265226,686,1
317,1771787703.268026,681,2
318,1771787703.268049,671,2
319,1771787703.2770188,664,2
320,1771787703.277051,652,2
321,1771787703.308324,643,2
322,1771787703.308365,631,1
323,1771787703.312223,618,1
324,1771787703.3432598,603,1
325,1771787703.343296,590,1
326,1771787703.345123,575,1
327,1771787703.353771,565,1
328,1771787703.4226072,552,0
329,1771787703.4250329,545,1
330,1771787703.425055,536,1
331,1771787703.427061,533,1
332,1771787703.4346051,527,1
333,1771787703.434637,525,1
334,1771787703.434647,523,1
335,1771787703.43614,524,1
336,1771787703.445129,522,1
337,1771787703.4451609,523,1
338,1771787703.478186,520,1
339,1771787703.478219,523,1
340,1771787703.482077,520,1
341,1771787703.5125709,521,1
342,1771787703.512588,518,1
343,1771787703.514899,518,1
344,1771787703.5544991,513,1
345,1771787703.5545259,510,1
346,1771787703.556257,503,1
347,1771787703.562301,499,1
348,1771787703.591729,492,1
349,1771787703.591775,489,1
350,1771787703.592281,481,1
351,1771787703.594486,477,1
352,1771787703.609998,469,1
353,1771787703.638346,468,1
354,1771787703.638387,463,1
355,1771787703.6421618,460,1
356,1771787703.646358,452,0
357,1771787703.646369,449,0
358,1771787703.718432,444,1
359,1771787703.721676,444,0
360,1771787703.721709,439,0
361,1771787703.7217228,438,0
362,1771787703.724101,434,0
363,1771787703.726379,435,0
364,1771787703.7263942,433,0
365,1771787703.735101,435,0
366,1771787703.765056,433,0
367,1771787703.765087,436,0
368,1771787703.766906,434,0
369,1771787703.766918,434,0
370,1771787703.801053,430,0
371,1771787703.8011048,433,0
372,1771787703.8016179,430,0
373,1771787703.821126,433,0
374,1771787703.857064,433,1
375,1771787703.897532,435,0
376,1771787703.898734,432,0
377,1771787703.8987432,432,0
378,1771787703.9003541,429,0
379,1771787703.900361,429,0
380,1771787703.9025779,427,0
381,1771787703.905096,428,0
382,1771787703.906431,425,0
383,1771787703.941918,426,0
384,1771787703.943399,420,0
385,1771787703.9434218,425,0
386,1771787703.944886,422,0
387,1771787703.974136,422,0
388,1771787703.974168,419,0
389,1771787703.976345,422,0
390,1771787704.034625,420,0
391,1771787704.034655,420,0
392,1771787704.0346618,420,0
393,1771787704.034668,421,0
394,1771787704.034674,417,0
395,1771787704.0363631,420,0
396,1771787704.068606,422,0
397,1771787704.0737479,428,0
398,1771787704.073768,433,0
399,1771787704.0737762,443,0
400,1771787704.109598,451,0
401,1771787704.1127338,469,1
402,1771787704.112764,488,1
403,1771787704.112777,514,1
404,1771787704.145647,537,0
405,1771787704.148978,566,1
406,1771787704.149023,590,1
407,1771787704.149035,615,1
408,1771787704.180632,632,1
409,1771787704.1847281,649,2
410,1771787704.184758,655,2
411,1771787704.215945,660,2
412,1771787704.215976,654,2
413,1771787704.21745,651,2
414,1771787704.2249758,641,2
415,1771787704.254119,637,2
416,1771787704.256341,627,1
417,1771787704.258038,622,1
418,1771787704.258049,611,1
419,1771787704.292043,603,1
420,1771787704.2920718,591,1
421,1771787704.2923362,582,1
422,1771787704.324555,568,1
423,1771787704.325481,558,1
424,1771787704.3271282,545,0
425,1771787704.3286998,535,1
426,1771787704.385726,522,1
427,1771787704.385768,517,1
428,1771787704.387625,511,1
429,1771787704.392076,508,1
430,1771787704.393037,505,1
431,1771787704.393059,507,1
432,1771787704.4319968,504,1
433,1771787704.432033,507,1
434,1771787704.432042,505,1
435,1771787704.432052,508,1
436,1771787704.4652312,507,1
437,1771787704.46526,509,1
438,1771787704.469389,507,1
439,1771787704.4695191,508,1
440,1771787704.502934,505,1
441,1771787704.502957,504,1
442,1771787704.503503,500,1
443,1771787704.539287,501,1
444,1771787704.539325,496,1
445,1771787704.542625,496,1
446,1771787704.542648,491,1
447,1771787704.5722408,488,1
448,1771787704.575192,482,1
449,1771787704.577322,480,1
450,1771787704.5773351,475,1
451,1771787704.5923378,472,1
452,1771787704.61952,467,1
453,1771787704.619547,465,1
454,1771787704.6215308,458,1
455,1771787704.680489,453,0
456,1771787704.680984,446,0
457,1771787704.6810071,446,0
458,1771787704.6827252,443,0
459,1771787704.682751,445,0
460,1771787704.686174,441,0
461,1771787704.714729,443,0
462,1771787704.7188952,439,1
463,1771787704.7189188,440,0
464,1771787704.727796,437,0
465,1771787704.727829,438,0
466,1771787704.7609138,434,0
467,1771787704.760968,436,0
468,1771787704.768522,433,0
469,1771787704.773372,434,0
470,1771787704.805362,430,1
471,1771787704.8054059,432,0
472,1771787704.8064709,432,0
473,1771787704.8148422,433,0
474,1771787704.844542,432,1
475,1771787704.844575,434,0
476,1771787704.846359,432,0
477,1771787704.877656,433,0
478,1771787704.880992,431,0
479,1771787704.881024,431,0
480,1771787704.8820832,427,0
481,1771787704.918266,428,0
482,1771787704.918314,426,0
483,1771787704.920633,429,0
484,1771787704.9220989,429,0
485,1771787704.9821959,431,0
486,1771787704.986306,430,0
487,1771787704.986343,434,0
488,1771787704.986542,432,0
489,1771787704.991511,435,0
490,1771787704.9925609,432,0
491,1771787704.992626,435,0
492,1771787705.02334,434,0
493,1771787705.023387,437,0
494,1771787705.0251799,440,1
495,1771787705.0578592,448,0
496,1771787705.0599082,454,1
497,1771787705.059927,467,1
498,1771787705.062103,480,1
499,1771787705.133257,498,1
500,1771787705.137343,518,1
501,1771787705.137523,545,1
502,1771787705.177664,567,1
503,1771787705.200268,590,1
504,1771787705.200309,607,1
505,1771787705.2026381,622,1
506,1771787705.204535,630,2
507,1771787705.207019,635,2
508,1771787705.207038,633,2
509,1771787705.208846,632,2
510,1771787705.211256,622,2
511,1771787705.211272,615,1
512,1771787705.213113,602,1
513,1771787705.2167501,594,1
514,1771787705.2221708,579,1
515,1771787705.282015,571,1
516,1771787705.282036,560,1
517,1771787705.283593,551,1
518,1771787705.286071,539,1
519,1771787705.2860842,530,1
520,1771787705.287709,517,1
521,1771787705.296916,508,1
522,1771787705.306129,498,1
523,1771787705.335681,494,1
524,1771787705.335724,490,1
525,1771787705.339639,491,1
526,1771787705.3697338,489,1
527,1771787705.369776,491,1
528,1771787705.3717031,491,1
529,1771787705.371734,495,1
530,1771787705.410413,495,1
531,1771787705.410445,501,1
532,1771787705.41062,501,1
533,1771787705.410634,503,1
534,1771787705.440824,502,1
535,1771787705.440855,504,1
536,1771787705.4418108,503,1
537,1771787705.475296,502,1
538,1771787705.475332,498,1
539,1771787705.475343,499,1
540,1771787705.50784,494,1
541,1771787705.509587,492,1
542,1771787705.514637,485,1
543,1771787705.514663,482,1
544,1771787705.5224268,476,1
545,1771787705.579583,472,1
546,1771787705.579616,471,1
547,1771787705.581655,471,1
548,1771787705.58752,465,0
549,1771787705.588048,464,1
550,1771787705.5880609,459,1
551,1771787705.594858,457,0
552,1771787705.627466,452,1
553,1771787705.627497,452,1
554,1771787705.6275232,451,1
555,1771787705.657019,452,0
556,1771787705.658547,448,0
557,1771787705.6604679,449,0
558,1771787705.660491,446,1
559,1771787705.6932569,445,0
560,1771787705.6932921,441,0
561,1771787705.695116,443,0
562,1771787705.699779,441,0
563,1771787705.709642,441,0
564,1771787705.7380118,438,1
565,1771787705.740103,439,0
566,1771787705.742455,436,1
567,1771787705.772148,438,0
568,1771787705.7743309,435,1
569,1771787705.775315,439,0
570,1771787705.807832,439,1
571,1771787705.807873,443,0
572,1771787705.812259,442,0
573,1771787705.812288,446,0
574,1771787705.8926,444,0
575,1771787705.8926342,446,0
576,1771787705.892641,446,0
577,1771787705.893993,448,0
578,1771787705.894006,447,1
579,1771787705.896437,444,0
580,1771787705.896456,440,0
581,1771787705.899987,440,0
582,1771787705.900018,435,0
583,1771787705.929642,437,0
584,1771787705.931533,438,0
585,1771787705.938739,440,0
586,1771787705.965154,439,0
587,1771787705.96755,444,0
588,1771787705.9675698,445,0
589,1771787705.996685,455,1
590,1771787705.99883,462,1
591,1771787706.002218,477,1
592,1771787706.002248,492,0
593,1771787706.032972,513,1
594,1771787706.036999,533,1
595,1771787706.037023,557,1
596,1771787706.0387242,576,1
597,1771787706.072059,596,1
598,1771787706.072101,611,2
599,1771787706.076938,626,1
600,1771787706.076951,631,1
601,1771787706.10799,633,2
602,1771787706.1122959,629,2
603,1771787706.11233,625,1
604,1771787706.1795468,615,1
605,1771787706.1816828,606,1
606,1771787706.1817129,595,1
607,1771787706.1845918,588,1
608,1771787706.186719,578,1
609,1771787706.18674,572,1
610,1771787706.186753,561,1
611,1771787706.187949,555,1
612,1771787706.220644,545,0
613,1771787706.2250822,539,1
614,1771787706.225107,530,1
615,1771787706.256005,523,1
616,1771787706.256047,515,1
617,1771787706.258502,511,1
618,1771787706.260365,504,1
619,1771787706.272863,504,1
620,1771787706.300839,501,1
621,1771787706.3037708,503,1
622,1771787706.3063931,501,1
623,1771787706.335575,505,1
624,1771787706.338961,505,1
625,1771787706.338979,508,1
626,1771787706.338988,505,1
627,1771787706.407972,507,1
628,1771787706.408016,505,1
629,1771787706.423678,507,1
630,1771787706.423719,502,1
631,1771787706.430345,502,1
632,1771787706.430372,496,1
633,1771787706.4344552,495,1
634,1771787706.434485,492,1
635,1771787706.434498,492,1
636,1771787706.4859462,488,1
637,1771787706.486022,488,1
638,1771787706.4876878,485,1
639,1771787706.4902909,483,1
640,1771787706.492817,478,1
641,1771787706.494132,478,1
642,1771787706.524734,471,1
643,1771787706.5249019,470,1
644,1771787706.526704,465,0
645,1771787706.5337112,465,1
646,1771787706.56481,462,1
647,1771787706.564843,464,1
648,1771787706.566875,461,1
649,1771787706.598847,460,1
650,1771787706.598888,457,1
651,1771787706.6015842,458,1
652,1771787706.6016068,455,1
653,1771787706.6348748,455,0
654,1771787706.6349041,451,1
655,1771787706.63611,453,1
656,1771787706.638737,448,0
657,1771787706.649795,448,0
658,1771787706.681213,447,1
659,1771787706.681248,452,0
660,1771787706.682774,452,1
661,1771787706.715782,454,0
662,1771787706.715817,451,1
663,1771787706.7192802,451,0
664,1771787706.7193,449,1
665,1771787706.7793741,451,0
666,1771787706.781285,449,1
667,1771787706.781291,451,1
668,1771787706.784457,451,1
669,1771787706.787046,452,0
670,1771787706.787061,449,1
671,1771787706.819565,450,0
672,1771787706.8196049,448,0
673,1771787706.821137,448,0
674,1771787706.822716,446,1
675,1771787706.832149,449,0
676,1771787706.8612921,448,0
677,1771787706.861323,451,1
678,1771787706.863564,451,1
679,1771787706.8952699,457,0
680,1771787706.895301,461,1
681,1771787706.8987079,472,1
682,1771787706.9296372,483,1
683,1771787706.929678,500,1
684,1771787706.931672,518,1
685,1771787706.962087,538,1
686,1771787706.9636438,558,1
687,1771787706.965406,579,1
688,1771787706.965424,595,1
689,1771787706.965437,611,1
690,1771787706.9987772,622,2
691,1771787706.998812,631,2
692,1771787707.000569,632,2
693,1771787707.0127308,631,1
694,1771787707.0796149,624,1
695,1771787707.079659,617,1
696,1771787707.081609,607,1
697,1771787707.082644,598,1
698,1771787707.085141,587,1
699,1771787707.086925,579,1
700,1771787707.0869482,570,0
701,1771787707.096344,562,1
702,1771787707.1252632,551,1
703,1771787707.127148,545,1
704,1771787707.1271691,536,1
705,1771787707.131168,530,1
706,1771787707.159522,523,1
707,1771787707.163753,519,1
708,1771787707.163782,513,0
709,1771787707.195215,511,1
710,1771787707.195355,508,1
711,1771787707.197821,509,1
712,1771787707.199002,504,1
713,1771787707.235787,505,1
714,1771787707.23583,506,1
715,1771787707.237643,510,1
716,1771787707.24632,509,1
717,1771787707.275619,509,1
718,1771787707.2773252,509,1
719,1771787707.277339,512,1
720,1771787707.281745,512,1
721,1771787707.309589,512,1
722,1771787707.311785,511,1
723,1771787707.31181,512,1
724,1771787707.386378,510,1
725,1771787707.3864262,510,1
726,1771787707.395882,507,1
727,1771787707.395914,502,1
728,1771787707.395937,495,1
729,1771787707.396896,491,1
730,1771787707.399061,485,1
731,1771787707.399071,483,1
732,1771787707.401355,480,1
733,1771787707.433236,478,1
734,1771787707.433277,473,1
735,1771787707.435668,472,1
736,1771787707.4396212,467,1
737,1771787707.469669,468,1
738,1771787707.469708,465,1
739,1771787707.471461,466,1
740,1771787707.5021372,463,1
741,1771787707.503624,464,1
742,1771787707.505193,463,1
743,1771787707.536,463,1
744,1771787707.536042,460,0
745,1771787707.538837,463,1
746,1771787707.5394099,460,1
747,1771787707.570967,461,0
748,1771787707.572911,460,1
749,1771787707.5757551,460,1
750,1771787707.5863738,458,1
751,1771787707.615347,461,0
752,1771787707.619468,459,0
753,1771787707.6195168,460,1
754,1771787707.621741,460,1
755,1771787707.680779,460,0
756,1771787707.6808221,459,1
757,1771787707.6825888,458,1
758,1771787707.7204108,457,1
759,1771787707.7580318,457,1
760,1771787707.77363,455,1
761,1771787707.7736902,454,0
762,1771787707.777428,451,1
763,1771787707.7774432,452,0
764,1771787707.777449,451,0
765,1771787707.778944,453,0
766,1771787707.7830882,453,1
767,1771787707.784252,458,0
768,1771787707.784271,463,1
769,1771787707.7842839,473,1
770,1771787707.786289,481,1
771,1771787707.7873971,496,1
772,1771787707.8221729,512,1
773,1771787707.822214,533,1
774,1771787707.823895,552,1
775,1771787707.854801,574,1
776,1771787707.85612,591,1
777,1771787707.8579829,609,1
778,1771787707.858009,621,2
779,1771787707.890729,632,1
780,1771787707.890762,635,2
781,1771787707.892504,638,2
782,1771787707.926336,634,1
783,1771787707.926379,630,2
784,1771787707.927197,621,1
785,1771787707.930882,614,1
786,1771787707.983625,604,1
787,1771787707.987023,599,1
788,1771787707.987037,590,1
789,1771787707.990093,582,1
790,1771787707.990114,571,1
791,1771787707.992859,563,1
792,1771787708.0245109,552,1
793,1771787708.024541,545,1
794,1771787708.026277,536,1
795,1771787708.0575428,530,1
796,1771787708.059777,523,0
797,1771787708.0598001,520,1
798,1771787708.0618792,516,1
799,1771787708.093236,515,1
800,1771787708.093277,513,1
801,1771787708.0960152,514,1
802,1771787708.099572,513,1
803,1771787708.1099892,516,1
804,1771787708.143171,514,1
805,1771787708.14321,516,1
806,1771787708.145122,514,1
807,1771787708.1537821,516,1
808,1771787708.18192,514,1
809,1771787708.185086,515,1
810,1771787708.185111,514,1
811,1771787708.218716,515,1
812,1771787708.21912,513,1
813,1771787708.2201521,514,1
814,1771787708.2226381,510,1
815,1771787708.279436,507,0
816,1771787708.2794619,499,1
817,1771787708.281416,497,1
818,1771787708.282568,492,1
819,1771787708.284804,491,1
820,1771787708.286616,486,1
821,1771787708.2888908,486,1
822,1771787708.302232,481,1
823,1771787708.332236,480,1
824,1771787708.332274,477,1
825,1771787708.333909,478,1
826,1771787708.36464,477,1
827,1771787708.366787,477,1
828,1771787708.367754,475,1
829,1771787708.3982248,478,1
830,1771787708.3982651,475,1
831,1771787708.399828,475,1
832,1771787708.401995,472,0
833,1771787708.4331992,472,0
834,1771787708.437716,470,1
835,1771787708.4377441,471,1
836,1771787708.437773,467,1
837,1771787708.4708202,466,0
838,1771787708.4735649,462,1
839,1771787708.473593,462,0
840,1771787708.487926,460,0
841,1771787708.5133362,462,0
842,1771787708.513377,460,1
843,1771787708.5153909,461,1
844,1771787708.579508,460,1
845,1771787708.579548,460,0
846,1771787708.5821881,458,1
847,1771787708.583232,460,1
848,1771787708.584955,457,1
849,1771787708.587562,460,1
850,1771787708.589073,460,1
851,1771787708.589088,464,0
852,1771787708.622968,464,1
853,1771787708.623002,471,1
854,1771787708.624025,477,1
855,1771787708.655914,489,0
856,1771787708.656599,502,1
857,1771787708.6574469,523,1
858,1771787708.661358,543,1
859,1771787708.695442,568,1
860,1771787708.698632,588,1
861,1771787708.702354,609,1
862,1771787708.702378,624,2
863,1771787708.733814,637,2
864,1771787708.735381,642,2
865,1771787708.738283,647,2
866,1771787708.738307,644,2
867,1771787708.7720919,639,1
868,1771787708.772117,632,2
869,1771787708.774577,624,1
870,1771787708.804202,611,1
871,1771787708.804236,602,1
872,1771787708.8074088,589,1
873,1771787708.8380291,579,1
874,1771787708.83807,565,1
875,1771787708.888248,559,1
876,1771787708.888289,550,0
877,1771787708.8901298,542,1
878,1771787708.894646,533,1
879,1771787708.894678,528,1
880,1771787708.8946931,524,1
881,1771787708.8999522,522,1
882,1771787708.899966,516,1
883,1771787708.967413,518,1
884,1771787708.9674501,516,0
885,1771787709.0022771,521,1
886,1771787709.00368,521,1
887,1771787709.006519,524,1
888,1771787709.006551,526,1
889,1771787709.0089211,527,1
890,1771787709.0089412,525,1
891,1771787709.0131829,526,1
892,1771787709.013213,522,1
893,1771787709.0146828,522,1
894,1771787709.045347,517,1
895,1771787709.0470378,518,1
896,1771787709.049441,513,0
897,1771787709.052769,512,1
898,1771787709.06124,508,1
899,1771787709.089629,508,1
900,1771787709.092752,504,1
901,1771787709.0927732,502,1
902,1771787709.125759,498,1
903,1771787709.128934,496,1
904,1771787709.128948,492,1
905,1771787709.1289558,491,1
906,1771787709.179926,487,1
907,1771787709.1799822,489,1
908,1771787709.180594,485,1
909,1771787709.184715,485,1
910,1771787709.1863198,482,1
911,1771787709.214775,480,1
912,1771787709.216788,475,1
913,1771787709.216817,475,1
914,1771787709.219164,472,1
915,1771787709.25058,470,1
916,1771787709.259906,468,1
917,1771787709.259937,468,1
918,1771787709.261757,464,1
919,1771787709.2932448,466,1
920,1771787709.2932842,465,1
921,1771787709.295298,465,1
922,1771787709.328243,460,1
923,1771787709.3282838,460,0
924,1771787709.3300009,458,1
925,1771787709.332009,457,1
926,1771787709.363499,455,1
927,1771787709.365408,456,1
928,1771787709.36543,455,0
929,1771787709.367693,460,1
930,1771787709.399711,461,1
931,1771787709.401678,464,1
932,1771787709.4017012,465,1
933,1771787709.4333398,471,1
934,1771787709.4333818,478,1
935,1771787709.4352279,494,1
936,1771787709.487819,512,1
937,1771787709.48786,536,1
938,1771787709.487875,560,1
939,1771787709.489543,589,1
940,1771787709.493227,612,1
941,1771787709.493681,638,2
942,1771787709.5249789,655,2
943,1771787709.525015,670,2
944,1771787709.525026,678,2
945,1771787709.526861,682,2
946,1771787709.558174,678,2
947,1771787709.5623062,675,2
948,1771787709.562335,667,2
949,1771787709.593257,662,2
950,1771787709.593299,651,2
951,1771787709.595135,643,2
952,1771787709.603466,631,2
953,1771787709.610983,621,1
954,1771787709.640285,611,1
955,1771787709.643557,603,1
956,1771787709.643583,591,1
957,1771787709.6760519,580,1
958,1771787709.676095,566,1
959,1771787709.67767,557,1
960,1771787709.681937,543,1
961,1771787709.711721,535,1
962,1771787709.711762,527,1
963,1771787709.713821,526,1
964,1771787709.779964,522,1
965,1771787709.78,523,1
966,1771787709.781604,522,1
967,1771787709.7846668,526,1
968,1771787709.7877162,525,1
969,1771787709.7877471,527,1
970,1771787709.78776,526,1
971,1771787709.79643,527,1
972,1771787709.804775,524,0
973,1771787709.814673,526,1
974,1771787709.8461068,523,1
975,1771787709.847754,522,1
976,1771787709.8526511,517,1
977,1771787709.85268,516,1
978,1771787709.882045,511,1
979,1771787709.885206,511,1
980,1771787709.885229,506,1
981,1771787709.8993332,502,1
982,1771787709.9224498,496,1
983,1771787709.92503,493,1
984,1771787709.925044,487,0
985,1771787709.958247,483,1
986,1771787709.9582841,475,1
987,1771787709.959458,474,0
988,1771787709.9633532,470,1
989,1771787709.992949,470,1
990,1771787709.997262,467,1
991,1771787709.997288,467,0
992,1771787709.998734,464,0
993,1771787710.0098119,464,1
994,1771787710.083255,460,1
995,1771787710.083304,460,1
996,1771787710.083319,457,1
997,1771787710.085245,458,1
998,1771787710.088196,456,1
999,1771787710.088223,455,1
1000,1771787710.089495,453,1
1001,1771787710.089515,453,0
1002,1771787710.123279,451,1
1003,1771787710.123321,454,1
1004,1771787710.125236,453,1
1005,1771787710.1578538,455,0
1006,1771787710.1578932,453,1
1007,1771787710.161155,453,1
1008,1771787710.161175,451,1
1009,1771787710.195659,452,0
1010,1771787710.203156,449,1
1011,1771787710.2031932,451,1
1012,1771787710.240354,451,0
1013,1771787710.263318,456,1
1014,1771787710.263346,460,1
1015,1771787710.267831,470,1
1016,1771787710.26785,479,1
1017,1771787710.2689002,497,1
1018,1771787710.26893,516,1
1019,1771787710.2753322,545,1
1020,1771787710.304624,569,1
1021,1771787710.3156679,600,1
1022,1771787710.3157032,624,1
1023,1771787710.319371,651,2
1024,1771787710.319396,666,2
1025,1771787710.389468,679,2
1026,1771787710.389499,685,2
1027,1771787710.3911092,690,2
1028,1771787710.392983,686,1
1029,1771787710.3930082,684,2
1030,1771787710.395166,675,2
1031,1771787710.396384,668,2
1032,1771787710.40458,655,2
1033,1771787710.4331882,648,2
1034,1771787710.4376462,639,2
1035,1771787710.438708,633,1
1036,1771787710.467337,625,1
1037,1771787710.4713678,617,1
1038,1771787710.4714339,607,1
1039,1771787710.471445,597,1
1040,1771787710.507052,583,1
1041,1771787710.507071,572,1
1042,1771787710.508607,560,1
1043,1771787710.5086222,551,1
1044,1771787710.5432022,542,1
1045,1771787710.543232,536,1
1046,1771787710.545151,529,1
1047,1771787710.551237,527,1
1048,1771787710.581832,525,1
1049,1771787710.5840309,527,1
1050,1771787710.585072,527,1
1051,1771787710.621418,528,1
1052,1771787710.622005,527,1
1053,1771787710.622017,530,1
1054,1771787710.6220238,528,1
1055,1771787710.6806579,529,1
1056,1771787710.680694,527,1
1057,1771787710.6829,527,1
1058,1771787710.687684,523,1
1059,1771787710.6877031,520,1
1060,1771787710.687713,515,1
1061,1771787710.688798,512,1
1062,1771787710.720454,504,1
1063,1771787710.7241,500,1
1064,1771787710.724125,494,1
1065,1771787710.735189,489,1
1066,1771787710.768065,483,1
1067,1771787710.7680871,480,1
1068,1771787710.76971,473,1
1069,1771787710.771832,470,1
1070,1771787710.803156,463,1
1071,1771787710.805464,461,1
1072,1771787710.80766,458,0
1073,1771787710.807681,460,1
1074,1771787710.839663,459,1
1075,1771787710.841968,461,1
1076,1771787710.844797,459,0
1077,1771787710.874926,457,0
1078,1771787710.874967,455,1
1079,1771787710.877225,455,0
1080,1771787710.8838558,451,0
1081,1771787710.912661,451,0
1082,1771787710.914869,448,1
1083,1771787710.914897,448,0
1084,1771787710.923609,443,1
1085,1771787710.985877,444,0
1086,1771787710.985908,443,1
1087,1771787710.9890711,443,0
1088,1771787710.9901671,439,0
1089,1771787710.990182,438,0
1090,1771787710.995007,436,1
1091,1771787710.995033,439,0
1092,1771787711.0023592,438,0
1093,1771787711.03128,439,0
1094,1771787711.031314,436,1
1095,1771787711.033796,438,0
1096,1771787711.0651011,437,0
1097,1771787711.066179,439,0
1098,1771787711.068573,438,0
1099,1771787711.0981839,441,0
1100,1771787711.1003158,439,0
1101,1771787711.100338,441,0
1102,1771787711.102027,439,1
1103,1771787711.135892,440,0
1104,1771787711.1367948,437,0
1105,1771787711.136805,440,0
1106,1771787711.136811,440,1
1107,1771787711.149917,443,0
1108,1771787711.1808882,446,0
1109,1771787711.180942,455,1
1110,1771787711.183292,464,1
1111,1771787711.215144,483,1
1112,1771787711.217917,502,1
1113,1771787711.2179468,528,1
1114,1771787711.220623,556,1
1115,1771787711.2796102,588,1
1116,1771787711.279653,618,1
1117,1771787711.281388,646,2
1118,1771787711.2834198,667,2
1119,1771787711.288814,681,2
1120,1771787711.288845,688,2
1121,1771787711.289657,694,2
1122,1771787711.3201568,690,2
1123,1771787711.3201978,686,2
1124,1771787711.32251,676,1
1125,1771787711.3521001,666,2
1126,1771787711.354053,652,2
1127,1771787711.356214,641,2
1128,1771787711.364044,627,1
1129,1771787711.3925571,618,1
1130,1771787711.3946712,606,1
1131,1771787711.394706,597,1
1132,1771787711.4286652,584,1
1133,1771787711.4287071,574,1
1134,1771787711.430071,563,1
1135,1771787711.4315588,556,1
1136,1771787711.466607,545,1
1137,1771787711.466701,539,1
1138,1771787711.4667149,532,1
1139,1771787711.466727,531,1
1140,1771787711.522947,527,1
1141,1771787711.5230231,531,1
1142,1771787711.579176,531,1
1143,1771787711.6154509,533,1
1144,1771787711.615484,531,1
1145,1771787711.615492,532,1
1146,1771787711.617613,532,1
1147,1771787711.617624,531,1
1148,1771787711.619967,529,1
1149,1771787711.6227682,530,1
1150,1771787711.622792,526,1
1151,1771787711.625131,525,1
1152,1771787711.625151,520,1
1153,1771787711.626838,518,1
1154,1771787711.628587,512,1
1155,1771787711.630081,508,1
1156,1771787711.6605911,503,1
1157,1771787711.660619,502,1
1158,1771787711.662679,496,1
1159,1771787711.695227,492,1
1160,1771787711.697668,484,0
1161,1771787711.69769,483,1
1162,1771787711.726892,478,1
1163,1771787711.728841,474,1
1164,1771787711.7306712,470,1
1165,1771787711.733978,469,1
1166,1771787711.766124,464,1
1167,1771787711.7678158,463,1
1168,1771787711.767838,457,0
1169,1771787711.767843,456,1
1170,1771787711.7997298,453,1
1171,1771787711.801675,454,1
1172,1771787711.801694,449,1
1173,1771787711.83491,448,0
1174,1771787711.834966,445,0
1175,1771787711.836444,446,0
1176,1771787711.8876128,443,0
1177,1771787711.8889642,444,0
1178,1771787711.888986,442,1
1179,1771787711.8909261,442,0
1180,1771787711.900637,441,0
1181,1771787711.900681,441,0
1182,1771787711.903923,439,0
1183,1771787711.936383,440,0
1184,1771787711.936526,437,0
1185,1771787711.938955,440,0
1186,1771787711.939264,440,0
1187,1771787711.9708412,440,0
1188,1771787711.970882,439,0
1189,1771787711.972797,440,0
1190,1771787712.006075,439,1
1191,1771787712.0061219,440,0
1192,1771787712.007446,440,0
1193,1771787712.009504,444,0
1194,1771787712.041045,441,1
1195,1771787712.0476868,441,0
1196,1771787712.0477078,439,0
1197,1771787712.0549388,439,0
1198,1771787712.065332,435,0
1199,1771787712.0973408,435,0
1200,1771787712.0973709,433,0
1201,1771787712.097378,434,0
1202,1771787712.0977018,431,1
1203,1771787712.130581,432,0
1204,1771787712.130622,435,0
1205,1771787712.132628,441,0
1206,1771787712.179647,448,1
1207,1771787712.181382,460,1
1208,1771787712.181396,476,1
1209,1771787712.184869,498,1
1210,1771787712.186327,521,1
1211,1771787712.2147121,548,1
1212,1771787712.218339,573,0
1213,1771787712.218538,600,1
1214,1771787712.2265658,620,2
1215,1771787712.235111,639,2
1216,1771787712.2386649,651,2
1217,1771787712.267196,659,2
1218,1771787712.27875,660,2
1219,1771787712.278778,660,2
1220,1771787712.3020391,654,2
1221,1771787712.3036869,650,2
1222,1771787712.3053281,639,2
1223,1771787712.335928,630,1
1224,1771787712.3359702,616,1
1225,1771787712.337057,609,1
1226,1771787712.341156,595,1
1227,1771787712.370241,584,1
1228,1771787712.374523,572,1
1229,1771787712.3745542,562,1
1230,1771787712.406865,551,1
1231,1771787712.415017,542,1
1232,1771787712.41504,534,1
1233,1771787712.4201431,529,1
1234,1771787712.4201632,520,1
1235,1771787712.484749,516,1
1236,1771787712.488884,512,1
1237,1771787712.488906,512,1
1238,1771787712.4889128,511,1
1239,1771787712.490054,514,1
1240,1771787712.493972,515,1
1241,1771787712.493991,519,1
1242,1771787712.527074,521,1
1243,1771787712.527103,527,1
1244,1771787712.5296168,527,1
1245,1771787712.533653,529,1
1246,1771787712.572042,527,1
1247,1771787712.572083,525,1
1248,1771787712.5764532,521,1
1249,1771787712.57647,519,1
1250,1771787712.5832179,515,1
1251,1771787712.6129658,513,1
1252,1771787712.615432,508,1
1253,1771787712.615457,504,1
1254,1771787712.623709,497,1
1255,1771787712.63579,492,1
1256,1771787712.638877,486,0
1257,1771787712.670264,482,1
1258,1771787712.670293,477,1
1259,1771787712.672711,474,1
1260,1771787712.7037382,470,1
1261,1771787712.703795,468,1
1262,1771787712.7053251,463,1
1263,1771787712.738013,462,1
1264,1771787712.738657,459,1
1265,1771787712.7803252,457,1
1266,1771787712.827424,454,1
1267,1771787712.860259,454,1
1268,1771787712.860297,452,0
1269,1771787712.8603048,453,1
1270,1771787712.86121,449,1
1271,1771787712.8638232,449,0
1272,1771787712.863838,447,0
1273,1771787712.865363,448,1
1274,1771787712.867713,445,1
1275,1771787712.8695529,447,0
1276,1771787712.869581,444,0
1277,1771787712.871263,446,0
1278,1771787712.873782,444,1
1279,1771787712.875108,444,0
1280,1771787712.906348,442,0
1281,1771787712.906378,443,0
1282,1771787712.90939,441,1
1283,1771787712.9094138,442,0
1284,1771787712.942762,439,0
1285,1771787712.94294,441,0
1286,1771787712.945314,440,1
1287,1771787712.9771469,443,0
1288,1771787712.977175,439,0
1289,1771787712.981428,440,1
1290,1771787712.981449,439,1
1291,1771787712.992407,439,0
1292,1771787713.023284,439,0
1293,1771787713.023316,441,0
1294,1771787713.025375,440,0
1295,1771787713.0815842,441,0
1296,1771787713.0816152,440,0
1297,1771787713.085133,441,0
1298,1771787713.085155,440,1
1299,1771787713.0870452,443,0
1300,1771787713.0895429,443,0
1301,1771787713.089557,448,0
1302,1771787713.122135,453,1
1303,1771787713.122262,467,1
1304,1771787713.126218,480,1
1305,1771787713.157152,502,1
1306,1771787713.1571798,521,1
1307,1771787713.160497,547,1
1308,1771787713.160722,570,1
1309,1771787713.1946912,593,1
1310,1771787713.1947331,609,1
1311,1771787713.194748,625,1
1312,1771787713.19857,633,1
1313,1771787713.227145,639,1
1314,1771787713.231146,639,2
1315,1771787713.231161,636,1
1316,1771787713.263092,628,1
1317,1771787713.2631328,620,1
1318,1771787713.2678678,609,2
1319,1771787713.297021,600,1
1320,1771787713.297051,586,0
1321,1771787713.299646,576,1
1322,1771787713.299671,563,1
1323,1771787713.3313842,556,1
1324,1771787713.3337321,545,1
1325,1771787713.3362088,538,1
1326,1771787713.389611,527,1
1327,1771787713.389646,520,1
1328,1771787713.391088,513,1
1329,1771787713.393873,510,1
1330,1771787713.3939111,504,1
1331,1771787713.395241,504,1
1332,1771787713.4062998,503,1
1333,1771787713.4345741,504,1
1334,1771787713.434603,506,1
1335,1771787713.4374661,510,1
1336,1771787713.468849,510,1
1337,1771787713.4688818,512,1
1338,1771787713.4698298,512,1
1339,1771787713.471909,512,1
1340,1771787713.503597,508,1
1341,1771787713.5057569,509,1
1342,1771787713.505785,506,1
1343,1771787713.539504,504,1
1344,1771787713.5395358,499,1
1345,1771787713.541054,499,1
1346,1771787713.543523,493,1
1347,1771787713.574228,492,1
1348,1771787713.574275,487,1
1349,1771787713.574284,488,1
1350,1771787713.583763,484,1
1351,1771787713.611949,481,1
1352,1771787713.615096,477,1
1353,1771787713.615118,475,1
1354,1771787713.682774,470,1
1355,1771787713.682812,467,1
1356,1771787713.682824,464,0
1357,1771787713.686023,464,0
1358,1771787713.6876569,462,1
1359,1771787713.687669,463,1
1360,1771787713.688812,460,1
1361,1771787713.6912498,460,1
1362,1771787713.72328,456,1
1363,1771787713.723328,456,0
1364,1771787713.725108,454,0
1365,1771787713.733829,455,0
1366,1771787713.7424588,452,1
1367,1771787713.7522938,452,1
1368,1771787713.7622662,449,0
1369,1771787713.791355,450,0
1370,1771787713.791394,447,1
1371,1771787713.793683,448,0
1372,1771787713.825527,446,0
1373,1771787713.825561,448,0
1374,1771787713.829705,445,1
1375,1771787713.858261,446,0
1376,1771787713.862554,442,0
1377,1771787713.862565,445,0
1378,1771787713.865412,441,1
1379,1771787713.867751,440,0
1380,1771787713.901825,436,0
1381,1771787713.901858,439,0
1382,1771787713.9024582,436,0
1383,1771787713.981652,440,0
1384,1771787713.981689,438,0
1385,1771787713.991334,442,0
1386,1771787713.9915671,442,1
1387,1771787713.991575,444,0
1388,1771787713.995751,440,0
1389,1771787713.995764,441,0
1390,1771787713.9957702,438,0
1391,1771787713.997492,439,0
1392,1771787714.034673,438,0
1393,1771787714.034701,442,0
1394,1771787714.034708,443,1
1395,1771787714.036973,451,1
1396,1771787714.0370219,459,1
1397,1771787714.1027179,473,1
1398,1771787714.1027489,487,1
1399,1771787714.105624,508,1
1400,1771787714.107478,527,0
1401,1771787714.10749,552,1
1402,1771787714.1204531,573,1
1403,1771787714.125037,593,1
1404,1771787714.125054,607,1
1405,1771787714.158203,622,1
1406,1771787714.1582332,628,2
1407,1771787714.160136,636,1
1408,1771787714.160148,635,1
1409,1771787714.1927528,635,2
1410,1771787714.192781,629,2
1411,1771787714.195858,623,1
1412,1771787714.196716,613,1
1413,1771787714.2289548,606,1
1414,1771787714.228985,597,1
1415,1771787714.2320828,588,1
1416,1771787714.27938,579,1
1417,1771787714.279395,573,1
1418,1771787714.281245,563,1
1419,1771787714.282803,556,1
1420,1771787714.287031,546,1
1421,1771787714.318796,537,1
1422,1771787714.318837,527,1
1423,1771787714.320352,521,1
1424,1771787714.322548,513,1
1425,1771787714.3517818,510,1
1426,1771787714.3537989,505,1
1427,1771787714.355278,508,1
1428,1771787714.3638778,508,1
1429,1771787714.394612,510,1
1430,1771787714.39464,509,1
1431,1771787714.3961651,511,1
1432,1771787714.427679,509,1
1433,1771787714.429433,511,1
1434,1771787714.432085,508,1
1435,1771787714.4320982,510,1
1436,1771787714.465935,509,1
1437,1771787714.4659698,508,1
1438,1771787714.468162,506,1
1439,1771787714.502992,507,1
1440,1771787714.50464,504,1
1441,1771787714.506318,504,1
1442,1771787714.506329,502,1
1443,1771787714.508468,501,1
1444,1771787714.5822551,495,0
1445,1771787714.5822861,491,1
1446,1771787714.582293,487,1
1447,1771787714.586439,486,1
1448,1771787714.586456,482,1
1449,1771787714.590071,482,1
1450,1771787714.5901,479,1
1451,1771787714.590239,477,1
1452,1771787714.625789,471,0
1453,1771787714.625827,467,1
1454,1771787714.6262689,462,1
1455,1771787714.657161,461,1
1456,1771787714.658613,458,1
1457,1771787714.660635,457,1
1458,1771787714.660649,452,1
1459,1771787714.693232,452,0
1460,1771787714.693272,449,0
1461,1771787714.697153,451,0
1462,1771787714.702419,449,1
1463,1771787714.7321432,452,0
1464,1771787714.732333,452,0
1465,1771787714.7403362,453,0
1466,1771787714.769461,452,1
1467,1771787714.7695029,455,0
1468,1771787714.769517,454,0
1469,1771787714.7756329,455,1
1470,1771787714.804411,452,1
1471,1771787714.8073118,452,0
1472,1771787714.808129,450,1
1473,1771787714.8099232,450,0
1474,1771787714.823539,445,1
1475,1771787714.8883111,446,0
1476,1771787714.892122,442,0
1477,1771787714.892148,444,0
1478,1771787714.896686,443,1
1479,1771787714.89671,444,0
1480,1771787714.896716,442,0
1481,1771787714.8967218,446,1
1482,1771787714.928193,446,1
1483,1771787714.932926,449,0
1484,1771787714.9329548,450,1
1485,1771787714.932967,453,0
1486,1771787714.9652631,455,1
1487,1771787714.965306,463,1
1488,1771787714.9674299,471,1
1489,1771787714.969304,483,1
1490,1771787715.000661,496,1
1491,1771787715.0006962,519,1
1492,1771787715.002445,538,1
1493,1771787715.0369961,561,1
1494,1771787715.039045,579,1
1495,1771787715.039068,599,1
1496,1771787715.03908,612,1
1497,1771787715.0728178,624,1
1498,1771787715.072851,631,2
1499,1771787715.074877,636,1
1500,1771787715.107112,632,2
1501,1771787715.1087081,630,1
1502,1771787715.110472,621,1
1503,1771787715.1104991,615,1
1504,1771787715.17967,605,1
1505,1771787715.179701,598,1
1506,1771787715.181976,586,1
1507,1771787715.1866188,579,1
1508,1771787715.186644,569,0
1509,1771787715.186687,564,1
1510,1771787715.189112,555,1
1511,1771787715.1922612,548,1
1512,1771787715.22309,539,1
1513,1771787715.223119,535,1
1514,1771787715.225226,527,1
1515,1771787715.260693,523,1
1516,1771787715.263864,515,1
1517,1771787715.263882,511,1
1518,1771787715.263912,504,1
1519,1771787715.2979121,500,1
1520,1771787715.297942,496,1
1521,1771787715.299377,498,1
1522,1771787715.2993898,494,1
1523,1771787715.36959,499,1
1524,1771787715.3711638,500,1
1525,1771787715.373662,505,1
1526,1771787715.4074152,505,1
1527,1771787715.4086342,507,1
1528,1771787715.410464,504,1
1529,1771787715.410484,505,1
1530,1771787715.412308,502,1
1531,1771787715.4145138,502,1
1532,1771787715.416298,499,1
1533,1771787715.4189692,500,1
1534,1771787715.429708,498,1
1535,1771787715.4310331,499,1
1536,1771787715.486795,496,1
1537,1771787715.486825,496,1
1538,1771787715.486917,491,1
1539,1771787715.486964,491,1
1540,1771787715.492419,484,0
1541,1771787715.492445,481,1
1542,1771787715.5227919,476,1
1543,1771787715.525138,473,1
1544,1771787715.5251598,468,1
1545,1771787715.558093,467,1
1546,1771787715.558172,464,1
1547,1771787715.559703,467,1
1548,1771787715.561248,463,1
1549,1771787715.593915,463,1
1550,1771787715.5939572,460,1
1551,1771787715.596757,460,1
1552,1771787715.59831,455,0
1553,1771787715.632141,454,1
1554,1771787715.632172,452,1
1555,1771787715.63218,455,0
1556,1771787715.665607,452,1
1557,1771787715.6674392,455,0
1558,1771787715.667454,454,1
1559,1771787715.668958,457,0
1560,1771787715.7029572,455,0
1561,1771787715.7030468,457,1
1562,1771787715.704684,455,1
1563,1771787715.736415,458,1
1564,1771787715.736445,456,1
1565,1771787715.739279,457,0
1566,1771787715.781319,455,1
1567,1771787715.781347,455,0
1568,1771787715.784008,453,1
1569,1771787715.786121,454,0
1570,1771787715.786138,451,1
1571,1771787715.7878559,454,0
1572,1771787715.820647,453,1
1573,1771787715.820677,459,1
1574,1771787715.822454,465,1
1575,1771787715.852557,477,1
1576,1771787715.85467,486,1
1577,1771787715.856351,504,1
1578,1771787715.8882492,519,1
1579,1771787715.888282,542,1
1580,1771787715.8897972,562,1
1581,1771787715.89138,582,1
1582,1771787715.923973,596,1
1583,1771787715.924004,613,1
1584,1771787715.927721,621,1
1585,1771787715.9277482,628,1
1586,1771787715.9575381,624,2
1587,1771787715.959378,623,1
1588,1771787715.961308,615,1
1589,1771787715.997969,608,1
1590,1771787715.9980009,596,1
1591,1771787715.998008,586,1
1592,1771787716.024995,574,1
1593,1771787716.02625,567,1
1594,1771787716.028855,556,1
1595,1771787716.034693,550,1
1596,1771787716.0827782,541,0
1597,1771787716.0828109,538,1
1598,1771787716.085949,530,1
1599,1771787716.087629,524,1
1600,1771787716.087643,514,1
1601,1771787716.089041,511,1
1602,1771787716.122782,504,1
1603,1771787716.1228642,506,1
1604,1771787716.124131,506,0
1605,1771787716.156747,510,1
1606,1771787716.156798,511,1
1607,1771787716.158079,515,1
1608,1771787716.1602051,516,1
1609,1771787716.191359,521,1
1610,1771787716.191864,523,1
1611,1771787716.193648,526,1
1612,1771787716.204252,523,1
1613,1771787716.234794,524,1
1614,1771787716.234824,522,1
1615,1771787716.236562,521,1
1616,1771787716.2381032,516,1
1617,1771787716.274824,515,1
1618,1771787716.2748532,511,1
1619,1771787716.274861,511,1
1620,1771787716.302948,505,1
1621,1771787716.303957,504,1
1622,1771787716.306349,497,1
1623,1771787716.313694,495,1
1624,1771787716.38886,488,1
1625,1771787716.3888829,487,1
1626,1771787716.3919702,482,1
1627,1771787716.394219,480,1
1628,1771787716.394254,475,1
1629,1771787716.394262,473,1
1630,1771787716.396487,469,1
1631,1771787716.397752,469,1
1632,1771787716.429217,465,1
1633,1771787716.429298,465,1
1634,1771787716.431145,463,1
1635,1771787716.4329731,466,1
1636,1771787716.4645271,463,1
1637,1771787716.4674182,463,1
1638,1771787716.4697049,464,1
1639,1771787716.469719,469,1
1640,1771787716.505137,468,0
1641,1771787716.5051498,470,1
1642,1771787716.5051541,466,1
1643,1771787716.5337446,467,1
1644,1771787716.5337868,463,1
1645,1771787716.5365865,463,0
1646,1771787716.5381396,459,1
1647,1771787716.5719707,460,0
1648,1771787716.5720017,458,0
1649,1771787716.5720096,460,0
1650,1771787716.6054366,459,1
1651,1771787716.6072688,460,1
1652,1771787716.6072836,460,1
1653,1771787716.6087875,460,0
1654,1771787716.6427867,458,1
1655,1771787716.6428764,460,1
1656,1771787716.6445136,457,1
1657,1771787716.6762445,460,1
1658,1771787716.6762745,460,1
1659,1771787716.6791086,464,0
1660,1771787716.7211485,464,1
1661,1771787716.7211766,471,1
1662,1771787716.7238376,477,1
1663,1771787716.7259505,489,0
1664,1771787716.7259676,502,1
1665,1771787716.7276855,523,1
1666,1771787716.7604766,543,1
1667,1771787716.7605066,568,1
1668,1771787716.7622836,588,1
1669,1771787716.7923865,609,1
1670,1771787716.7944996,624,2
1671,1771787716.7961805,637,2
1672,1771787716.8280787,642,2
1673,1771787716.8281116,647,2
1674,1771787716.8296268,644,2
1675,1771787716.8312097,639,1
1676,1771787716.8638027,632,2
1677,1771787716.8638337,624,1
1678,1771787716.8675506,611,1
1679,1771787716.8675778,602,1
1680,1771787716.8973677,589,1
1681,1771787716.8992076,579,1
1682,1771787716.9011376,565,1
1683,1771787716.9377985,559,1
1684,1771787716.9378304,550,0
1685,1771787716.9378376,542,1
1686,1771787716.9648247,533,1
1687,1771787716.9660795,528,1
1688,1771787716.9686847,524,1
1689,1771787716.9745226,522,1
1690,1771787717.0226078,516,1
1691,1771787717.0226405,518,1
1692,1771787717.0257785,516,0
1693,1771787717.0274587,521,1
1694,1771787717.0274725,521,1
1695,1771787717.0288706,524,1
1696,1771787717.0626116,526,1
1697,1771787717.0626938,527,1
1698,1771787717.0639606,525,1
1699,1771787717.0965767,526,1
1700,1771787717.0966275,522,1
1701,1771787717.0979085,522,1
1702,1771787717.1000347,517,1
1703,1771787717.1311886,518,1
1704,1771787717.1316936,513,0
1705,1771787717.1334777,512,1
1706,1771787717.1440816,508,1
1707,1771787717.1746235,508,1
1708,1771787717.1746535,504,1
1709,1771787717.1763916,502,1
1710,1771787717.1779327,498,1
1711,1771787717.2146535,496,1
1712,1771787717.2146828,492,1
1713,1771787717.2146907,491,1
1714,1771787717.2427776,487,1
1715,1771787717.2437866,489,1
1716,1771787717.2461786,485,1
1717,1771787717.2535236,485,1
1718,1771787717.3286896,482,1
1719,1771787717.3287125,480,1
1720,1771787717.3317997,475,1
1721,1771787717.3340485,475,1
1722,1771787717.3340836,472,1
1723,1771787717.3340917,470,1
1724,1771787717.3363166,468,1
1725,1771787717.3375816,468,1
1726,1771787717.3690467,464,1
1727,1771787717.3691275,466,1
1728,1771787717.3709745,465,1
1729,1771787717.3728027,465,1
1730,1771787717.4043567,460,1
1731,1771787717.4072478,460,0
1732,1771787717.4095345,458,1
1733,1771787717.4095485,457,1
1734,1771787717.4449666,455,1
1735,1771787717.4449794,456,1
1736,1771787717.4449837,455,0
1737,1771787717.4994214,460,1
1738,1771787717.4994576,461,1
1739,1771787717.5016634,464,1
1740,1771787717.5064476,465,1
1741,1771787717.5064666,471,1
1742,1771787717.5064764,478,1
1743,1771787717.5075614,494,1
1744,1771787717.5392175,512,1
1745,1771787717.5428636,536,1
1746,1771787717.5428884,560,1
1747,1771787717.5539525,589,1
1748,1771787717.5868285,612,1
1749,1771787717.5868506,638,2
1750,1771787717.5884736,655,2
1751,1771787717.5905955,670,2
1752,1771787717.6219194,678,2
1753,1771787717.6242275,682,2
1754,1771787717.6264236,678,2
1755,1771787717.6264446,675,2
1756,1771787717.6584265,667,2
1757,1771787717.6607316,662,2
1758,1771787717.6635604,651,2
1759,1771787717.6936896,643,2
1760,1771787717.6937306,631,2
1761,1771787717.6959884,621,1
1762,1771787717.7026193,611,1
1763,1771787717.7314246,603,1
1764,1771787717.7336326,591,1
1765,1771787717.7336605,580,1
1766,1771787717.7423725,566,1
1767,1771787717.8046405,557,1
1768,1771787717.8046715,543,1
1769,1771787717.8078346,535,1
1770,1771787717.8089306,527,1
1771,1771787717.8089454,526,1
1772,1771787717.8137705,522,1
1773,1771787717.8137965,523,1
1774,1771787717.8211226,522,1
1775,1771787717.8500435,526,1
1776,1771787717.8500774,525,1
1777,1771787717.8525596,527,1
1778,1771787717.8838646,526,1
1779,1771787717.8849425,527,1
1780,1771787717.8873365,524,0
1781,1771787717.9169474,526,1
1782,1771787717.9190793,523,1
1783,1771787717.9191015,522,1
1784,1771787717.9207904,517,1
1785,1771787717.9546554,516,1
1786,1771787717.9555583,511,1
1787,1771787717.9555686,511,1
1788,1771787717.9555745,506,1
1789,1771787717.9686804,502,1
1790,1771787717.9996517,496,1
1791,1771787717.9997056,493,1
1792,1771787718.0020554,487,0
1793,1771787718.0339074,483,1
1794,1771787718.0366805,475,1
1795,1771787718.0367103,474,0
1796,1771787718.0393865,470,1
1797,1771787718.0983737,470,1
1798,1771787718.0984166,467,1
1799,1771787718.1001515,467,0
1800,1771787718.1021833,464,0
1801,1771787718.1075776,464,1
1802,1771787718.1076086,460,1
1803,1771787718.1084206,460,1
1804,1771787718.1389203,457,1
1805,1771787718.1389613,458,1
1806,1771787718.1412735,456,1
1807,1771787718.1708636,455,1
1808,1771787718.1728165,453,1
1809,1771787718.1749775,453,0
1810,1771787718.1828074,451,1
1811,1771787718.2113206,454,1
1812,1771787718.2134347,453,1
1813,1771787718.2134695,455,0
1814,1771787718.2474287,453,1
1815,1771787718.2474706,453,1
1816,1771787718.2488346,451,1
1817,1771787718.2503223,452,0
1818,1771787718.2853706,449,1
1819,1771787718.2854645,451,1
1820,1771787718.2854784,451,0
1821,1771787718.2854905,456,1
1822,1771787718.3417106,460,1
1823,1771787718.3417866,470,1
1824,1771787718.3979394,479,1
1825,1771787718.4342144,497,1
1826,1771787718.4342475,516,1
1827,1771787718.4342556,545,1
1828,1771787718.4363766,569,1
1829,1771787718.4363875,600,1
1830,1771787718.4387305,624,1
1831,1771787718.4415317,651,2
1832,1771787718.4415555,666,2
1833,1771787718.4438944,679,2
1834,1771787718.4439144,685,2
1835,1771787718.4456015,690,2
1836,1771787718.4473505,686,1
1837,1771787718.4488444,684,2
1838,1771787718.4793546,675,2
1839,1771787718.4793825,668,2
1840,1771787718.4814425,655,2
1841,1771787718.5139904,648,2
1842,1771787718.5164316,639,2
1843,1771787718.5164535,633,1
1844,1771787718.5456555,625,1
1845,1771787718.5476046,617,1
1846,1771787718.5494347,607,1
1847,1771787718.5527415,597,1
1848,1771787718.5848875,583,1
1849,1771787718.5865793,572,1
1850,1771787718.5866015,560,1
1851,1771787718.5866065,551,1
1852,1771787718.6184933,542,1
1853,1771787718.6204386,536,1
1854,1771787718.6204574,529,1
1855,1771787718.6536734,527,1
1856,1771787718.6537294,525,1
1857,1771787718.6552074,527,1
1858,1771787718.7063763,527,1
1859,1771787718.7077277,528,1
1860,1771787718.7077496,527,1
1861,1771787718.7096896,530,1
1862,1771787718.7194004,528,1
1863,1771787718.7194445,529,1
1864,1771787718.7226865,527,1
1865,1771787718.7551465,527,1
1866,1771787718.7552896,523,1
1867,1771787718.7577186,520,1
1868,1771787718.7580276,515,1
1869,1771787718.7896047,512,1
1870,1771787718.7896454,504,1
1871,1771787718.7915604,500,1
1872,1771787718.8248384,494,1
1873,1771787718.8248854,489,1
1874,1771787718.8262095,483,1
1875,1771787718.8282676,480,1
1876,1771787718.8598084,473,1
1877,1771787718.8664503,470,1
1878,1771787718.8664713,463,1
1879,1771787718.8737023,461,1
1880,1771787718.8840954,458,0
1881,1771787718.9161043,460,1
1882,1771787718.9161344,459,1
1883,1771787718.9161415,461,1
1884,1771787718.9164653,459,0
1885,1771787718.9493444,457,0
1886,1771787718.9493854,455,1
1887,1771787718.9513915,455,0
1888,1771787718.9984105,451,0
1889,1771787719.0001454,451,0
1890,1771787719.0001595,448,1
1891,1771787719.0036325,448,0
1892,1771787719.0050905,443,1
1893,1771787719.0334756,444,0
1894,1771787719.0371025,443,1
1895,1771787719.0373015,443,0
1896,1771787719.0453293,439,0
1897,1771787719.0538745,438,0
1898,1771787719.0574284,436,1
1899,1771787719.0859594,439,0
1900,1771787719.0975134,438,0
1901,1771787719.0975416,439,0
1902,1771787719.1208026,436,1
1903,1771787719.1224504,438,0
1904,1771787719.1240916,437,0
1905,1771787719.1546915,439,0
1906,1771787719.1547337,438,0
1907,1771787719.1558206,441,0
1908,1771787719.1599195,439,0
1909,1771787719.1890044,441,0
1910,1771787719.1932864,439,1
1911,1771787719.1933177,440,0
1912,1771787719.2256284,437,0
1913,1771787719.2337804,440,0
1914,1771787719.2338035,440,1
1915,1771787719.2389066,443,0
1916,1771787719.2389266,446,0
1917,1771787719.3035126,455,1
1918,1771787719.3076475,464,1
1919,1771787719.3076694,483,1
1920,1771787719.3076763,502,1
1921,1771787719.3088174,528,1
1922,1771787719.3127356,556,1
1923,1771787719.3127544,588,1
1924,1771787719.3458376,618,1
1925,1771787719.3458664,646,2
1926,1771787719.3483803,667,2
1927,1771787719.3524165,681,2
1928,1771787719.3908055,688,2
1929,1771787719.3908465,694,2
1930,1771787719.3952167,690,2
1931,1771787719.3952334,686,2
1932,1771787719.4019814,676,1
1933,1771787719.4317293,666,2
1934,1771787719.4341955,652,2
1935,1771787719.4342206,641,2
1936,1771787719.4424725,627,1
1937,1771787719.4545536,618,1
1938,1771787719.4576404,606,1
1939,1771787719.4890275,597,1
1940,1771787719.4890566,584,1
1941,1771787719.4914744,574,1
1942,1771787719.5225017,563,1
1943,1771787719.5225585,556,1
1944,1771787719.5240886,545,1
1945,1771787719.5567765,539,1
1946,1771787719.5574205,532,1
1947,1771787719.5990887,531,1
1948,1771787719.6461875,527,1
1949,1771787719.6790226,531,1
1950,1771787719.6790605,531,1
1951,1771787719.6790683,533,1
1952,1771787719.6799736,531,1
1953,1771787719.6825867,532,1
1954,1771787719.6826015,532,1
1955,1771787719.6841264,531,1
1956,1771787719.6864765,529,1
1957,1771787719.6883163,530,1
1958,1771787719.6883445,526,1
1959,1771787719.6900265,525,1
1960,1771787719.6925454,520,1
1961,1771787719.6938715,518,1
1962,1771787719.7251115,512,1
1963,1771787719.7251415,508,1
1964,1771787719.7281535,503,1
1965,1771787719.7281773,502,1
1966,1771787719.7615254,496,1
1967,1771787719.7617035,492,1
1968,1771787719.7640774,484,0
1969,1771787719.7959104,483,1
1970,1771787719.7959385,478,1
1971,1771787719.8001914,474,1
1972,1771787719.8002124,470,1
1973,1771787719.8111706,469,1
1974,1771787719.8420475,464,1
1975,1771787719.8420794,463,1
1976,1771787719.8441384,457,0
1977,1771787719.9003477,456,1
1978,1771787719.9003787,453,1
1979,1771787719.9038966,454,1
1980,1771787719.9039185,449,1
1981,1771787719.9058087,448,0
1982,1771787719.9083064,445,0
1983,1771787719.9083204,446,0
1984,1771787719.9408984,443,0
1985,1771787719.9410255,444,0
1986,1771787719.9449816,442,1
1987,1771787719.9759154,442,0
1988,1771787719.9759433,441,0
1989,1771787719.9792604,441,0
1990,1771787719.9794855,439,0
1991,1771787720.0134547,440,0
1992,1771787720.0134966,437,0
1993,1771787720.0135114,440,0
1994,1771787720.0173335,440,0
1995,1771787720.0459085,440,0
1996,1771787720.0499096,439,0
1997,1771787720.0499246,440,0
1998,1771787720.0818555,439,1
1999,1771787720.0818963,440,0
2000,1771787720.0866313,440,0
2001,1771787720.1157844,444,0
2002,1771787720.1158144,441,1
2003,1771787720.1184094,441,0
2004,1771787720.1184344,439,0
2005,1771787720.1501477,439,0
2006,1771787720.1524956,435,0
2007,1771787720.1549723,435,0
2008,1771787720.2083745,433,0
2009,1771787720.2084095,434,0
2010,1771787720.2098515,431,1
2011,1771787720.2126365,432,0
2012,1771787720.2126746,435,0
2013,1771787720.2140045,441,0
2014,1771787720.2250633,448,1
2015,1771787720.2533376,460,1
2016,1771787720.2533665,476,1
2017,1771787720.2562296,498,1
2018,1771787720.2876124,521,1
2019,1771787720.2876453,548,1
2020,1771787720.2885933,573,0
2021,1771787720.2906725,600,1
2022,1771787720.3223605,620,2
2023,1771787720.3245203,639,2
2024,1771787720.3245485,651,2
2025,1771787720.3582675,659,2
2026,1771787720.3582993,660,2
2027,1771787720.3598175,660,2
2028,1771787720.3622866,654,2
2029,1771787720.3929915,650,2
2030,1771787720.3930385,639,2
2031,1771787720.3930476,630,1
2032,1771787720.4025264,616,1
2033,1771787720.4307125,609,1
2034,1771787720.4338596,595,1
2035,1771787720.4338815,584,1
2036,1771787720.5015376,572,1
2037,1771787720.5015755,562,1
2038,1771787720.5015874,551,1
2039,1771787720.5047865,542,1
2040,1771787720.5064204,534,1
2041,1771787720.5064325,529,1
2042,1771787720.5075755,520,1
2043,1771787720.5100133,516,1
2044,1771787720.5420434,512,1
2045,1771787720.5420916,512,1
2046,1771787720.5438714,511,1
2047,1771787720.5525925,514,1
2048,1771787720.5612223,515,1
2049,1771787720.5710573,519,1
2050,1771787720.5810297,521,1
2051,1771787720.6101184,527,1
2052,1771787720.6101575,527,1
2053,1771787720.6124465,529,1
2054,1771787720.6442904,527,1
2055,1771787720.6443245,525,1
2056,1771787720.6484685,521,1
2057,1771787720.6770246,519,1
2058,1771787720.6813176,515,1
2059,1771787720.6813285,513,1
2060,1771787720.6841755,508,1
2061,1771787720.6865144,504,1
2062,1771787720.7205884,497,1
2063,1771787720.7206216,492,1
2064,1771787720.7212217,486,0
2065,1771787720.8004155,482,1
2066,1771787720.8004525,477,1
2067,1771787720.8100975,474,1
2068,1771787720.8103306,470,1
2069,1771787720.8103385,468,1
2070,1771787720.8145144,463,1
2071,1771787720.8145275,462,1
2072,1771787720.8145337,459,1
2073,1771787720.8162556,457,1
2074,1771787720.8534365,454,1
2075,1771787720.8534646,454,1
2076,1771787720.8534715,452,0
2077,1771787720.8557365,453,1
2078,1771787720.8557854,449,1
2079,1771787720.9214814,449,0
2080,1771787720.9215124,447,0
2081,1771787720.9243875,448,1
2082,1771787720.9262414,445,1
2083,1771787720.9262536,447,0
2084,1771787720.9392166,444,0
2085,1771787720.9438004,446,0
2086,1771787720.9438174,444,1
2087,1771787720.9769664,444,0
2088,1771787720.9769967,442,0
2089,1771787720.9788995,443,0
2090,1771787720.9789114,441,1
2091,1771787721.0115163,442,0
2092,1771787721.0115445,439,0
2093,1771787721.0146215,441,0
2094,1771787721.0154796,440,1
2095,1771787721.0477183,443,0
2096,1771787721.0477486,439,0
2097,1771787721.0508463,440,1
2098,1771787721.0981436,439,1
2099,1771787721.0981586,439,0
2100,1771787721.1000085,439,0
2101,1771787721.1015666,441,0
2102,1771787721.1057944,440,0
2103,1771787721.1375594,441,0
2104,1771787721.1376004,440,0
2105,1771787721.1391156,441,0
2106,1771787721.1413114,440,1
2107,1771787721.1705453,443,0
2108,1771787721.1725624,443,0
2109,1771787721.1740415,448,0
2110,1771787721.1826413,453,1
2111,1771787721.2133756,467,1
2112,1771787721.2134035,480,1
2113,1771787721.2149286,502,1
2114,1771787721.2464426,521,1
2115,1771787721.2481966,547,1
2116,1771787721.2508485,570,1
2117,1771787721.2508616,593,1
2118,1771787721.2846985,609,1
2119,1771787721.2847333,625,1
2120,1771787721.2869256,633,1
2121,1771787721.3217554,639,1
2122,1771787721.3234036,639,2
2123,1771787721.3250816,636,1
2124,1771787721.3250926,628,1
2125,1771787721.3272314,620,1
2126,1771787721.4010186,609,2
2127,1771787721.4010496,600,1
2128,1771787721.4010565,586,0
2129,1771787721.4052024,576,1
2130,1771787721.4052196,563,1
2131,1771787721.4088345,556,1
2132,1771787721.4088635,545,1
2133,1771787721.4090025,538,1
2134,1771787721.4445524,527,1
2135,1771787721.4445906,520,1
2136,1771787721.4450324,513,1
2137,1771787721.4759245,510,1
2138,1771787721.4773765,504,1
2139,1771787721.4793985,504,1
2140,1771787721.4794126,503,1
2141,1771787721.5119956,504,1
2142,1771787721.5120356,506,1
2143,1771787721.5159166,510,1
2144,1771787721.5211825,510,1
2145,1771787721.5509067,512,1
2146,1771787721.5510964,512,1
2147,1771787721.5590997,512,1
2148,1771787721.5882244,508,1
2149,1771787721.5882664,509,1
2150,1771787721.5882804,506,1
2151,1771787721.5943964,504,1
2152,1771787721.6231744,499,1
2153,1771787721.6260753,499,1
2154,1771787721.6268926,493,1
2155,1771787721.6286867,492,1
2156,1771787721.6423025,487,1
2157,1771787721.7070746,488,1
2158,1771787721.7108855,484,1
2159,1771787721.7109115,481,1
2160,1771787721.7154496,477,1
2161,1771787721.7154734,475,1
2162,1771787721.7154796,470,1
2163,1771787721.7154853,467,1
2164,1771787721.7469566,464,0
2165,1771787721.7516894,464,0
2166,1771787721.7517183,462,1
2167,1771787721.7517304,463,1
2168,1771787721.7840266,460,1
2169,1771787721.7840695,460,1
2170,1771787721.7861934,456,1
2171,1771787721.7880676,456,0
2172,1771787721.8009975,454,0
2173,1771787721.8108325,455,0
2174,1771787721.8208048,452,1
2175,1771787721.8498936,452,1
2176,1771787721.8499327,449,0
2177,1771787721.8522217,450,0
2178,1771787721.8840656,447,1
2179,1771787721.8840997,448,0
2180,1771787721.8882437,446,0
2181,1771787721.9167998,448,0
2182,1771787721.9210927,445,1
2183,1771787721.9211037,446,0
2184,1771787721.9239507,442,0
2185,1771787721.9262896,445,0
2186,1771787721.9603636,441,1
2187,1771787721.9603968,440,0
2188,1771787721.9609969,436,0
2189,1771787722.0401907,439,0
2190,1771787722.0402277,436,0
2191,1771787722.0498726,440,0
2192,1771787722.0501058,438,0
2193,1771787722.0501137,442,0
2194,1771787722.0542896,442,1
2195,1771787722.0543027,444,0
2196,1771787722.054309,440,0
2197,1771787722.0560308,441,0
2198,1771787722.0932117,438,0
2199,1771787722.0932398,439,0
2200,1771787722.0932467,438,0
2201,1771787722.0955117,442,0
2202,1771787722.0955606,443,1
2203,1771787722.1612566,451,1
2204,1771787722.1612875,459,1
2205,1771787722.1641626,473,1
2206,1771787722.1660166,487,1
2207,1771787722.1660287,508,1
2208,1771787722.1789918,527,0
2209,1771787722.1835756,552,1
2210,1771787722.1835926,573,1
2211,1771787722.2167416,593,1
2212,1771787722.2167718,607,1
2213,1771787722.2186747,622,1
2214,1771787722.2186866,628,2
2215,1771787722.2512915,636,1
2216,1771787722.2513196,635,1
2217,1771787722.2543967,635,2
2218,1771787722.2552547,629,2
2219,1771787722.2874935,623,1
2220,1771787722.2875237,613,1
2221,1771787722.2906215,606,1
2222,1771787722.3379188,597,1
2223,1771787722.3379338,588,1
2224,1771787722.3397837,579,1
2225,1771787722.3413417,573,1
2226,1771787722.3455696,563,1
2227,1771787722.3773346,556,1
2228,1771787722.3773756,546,1
2229,1771787722.3788908,537,1
2230,1771787722.3810866,527,1
2231,1771787722.4103205,521,1
2232,1771787722.4123375,513,1
2233,1771787722.4138167,510,1
2234,1771787722.4224164,505,1
2235,1771787722.4531507,508,1
2236,1771787722.4531786,508,1
2237,1771787722.4547038,510,1
2238,1771787722.4862177,509,1
2239,1771787722.4879718,511,1
2240,1771787722.4906237,509,1
2241,1771787722.4906368,511,1
2242,1771787722.5244737,508,1
2243,1771787722.5245085,510,1
2244,1771787722.5267007,509,1
2245,1771787722.5615306,508,1
2246,1771787722.5631788,506,1
2247,1771787722.5648568,507,1
2248,1771787722.5648677,504,1
2249,1771787722.5670066,504,1
2250,1771787722.6407938,502,1
2251,1771787722.6408248,501,1
2252,1771787722.6408317,495,0
2253,1771787722.6449776,491,1
2254,1771787722.6449947,487,1
2255,1771787722.6486096,486,1
2256,1771787722.6486387,482,1
2257,1771787722.6487777,482,1
2258,1771787722.6843276,479,1
2259,1771787722.6843657,477,1
2260,1771787722.6848075,471,0
2261,1771787722.7156997,467,1
2262,1771787722.7171516,462,1
2263,1771787722.7191737,461,1
2264,1771787722.7191877,458,1
2265,1771787722.7517707,457,1
2266,1771787722.7518108,452,1
2267,1771787722.7556918,452,0
2268,1771787722.7609577,449,0
2269,1771787722.7906818,451,0
2270,1771787722.7908716,449,1
2271,1771787722.7988749,452,0
2272,1771787722.8279996,452,0
2273,1771787722.8280416,453,0
2274,1771787722.8280556,452,1
2275,1771787722.8341715,455,0
2276,1771787722.8629496,454,0
2277,1771787722.8658504,455,1
2278,1771787722.8666677,452,1
2279,1771787722.8684618,452,0
2280,1771787722.8820777,450,1
2281,1771787722.9468498,450,0
2282,1771787722.9506607,445,1
2283,1771787722.9506867,446,0
2284,1771787722.9552248,442,0
2285,1771787722.9552486,444,0
2286,1771787722.9552548,443,1
2287,1771787722.9552605,444,0
2288,1771787722.9867318,442,0
2289,1771787722.9914646,446,1
2290,1771787722.9914935,446,1
2291,1771787722.9915056,449,0
2292,1771787723.0238018,450,1
2293,1771787723.0238447,453,0
2294,1771787723.0259686,455,1
2295,1771787723.0278428,463,1
2296,1771787723.0591996,471,1
2297,1771787723.0592349,483,1
2298,1771787723.0609837,496,1
2299,1771787723.0955348,519,1
2300,1771787723.0975838,538,1
2301,1771787723.0976067,561,1
2302,1771787723.0976186,579,1
2303,1771787723.1313565,599,1
2304,1771787723.1313896,612,1
2305,1771787723.1334157,624,1
2306,1771787723.1656506,631,2
2307,1771787723.1672468,636,1
2308,1771787723.1690106,632,2
2309,1771787723.1690378,630,1
2310,1771787723.2382088,621,1
2311,1771787723.2382398,615,1
2312,1771787723.2405148,605,1
2313,1771787723.2451575,598,1
2314,1771787723.2451828,586,1
2315,1771787723.2452257,579,1
2316,1771787723.2476506,569,0
2317,1771787723.2508,564,1
2318,1771787723.2816286,555,1
2319,1771787723.2816577,548,1
2320,1771787723.2837646,539,1
2321,1771787723.3192317,535,1
2322,1771787723.3224027,527,1
2323,1771787723.3224206,523,1
2324,1771787723.3224506,515,1
2325,1771787723.3564508,511,1
2326,1771787723.3564806,504,1
2327,1771787723.3579156,500,1
2328,1771787723.3579285,496,1
2329,1771787723.4281287,498,1
2330,1771787723.4297025,494,1
2331,1771787723.4322007,499,1
2332,1771787723.4659538,500,1
2333,1771787723.4671729,505,1
2334,1771787723.4690027,505,1
2335,1771787723.4690228,507,1
2336,1771787723.4708467,504,1
2337,1771787723.4730525,505,1
2338,1771787723.4748366,502,1
2339,1771787723.4775078,502,1
2340,1771787723.4882467,499,1
2341,1771787723.4895718,500,1
2342,1771787723.5453336,498,1
2343,1771787723.5453637,499,1
2344,1771787723.5454557,496,1
2345,1771787723.5455027,496,1
2346,1771787723.5509577,491,1
2347,1771787723.5509837,491,1
2348,1771787723.5813305,484,0
2349,1771787723.5836766,481,1
2350,1771787723.5836985,476,1
2351,1771787723.6166317,473,1
2352,1771787723.6167107,468,1
2353,1771787723.6182418,467,1
2354,1771787723.6197867,464,1
2355,1771787723.6524537,467,1
2356,1771787723.6524959,463,1
2357,1771787723.6552956,463,1
2358,1771787723.6568487,460,1
2359,1771787723.6906798,460,1
2360,1771787723.6907108,455,0
2361,1771787723.6907187,454,1
2362,1771787723.7241457,452,1
2363,1771787723.725978,455,0
2364,1771787723.7259927,452,1
2365,1771787723.7274966,455,0
2366,1771787723.7614958,454,1
2367,1771787723.7615855,457,0
2368,1771787723.7632227,455,0
2369,1771787723.7949536,457,1
2370,1771787723.7949836,455,1
2371,1771787723.7978177,458,1
2372,1771787723.8398576,456,1
2373,1771787723.8398857,457,0
2374,1771787723.8425467,455,1
2375,1771787723.8446596,455,0
2376,1771787723.8446767,453,1
2377,1771787723.8463945,454,0
2378,1771787723.8791857,451,1
2379,1771787723.8792157,454,0
2380,1771787723.8809927,453,1
2381,1771787723.9110956,459,1
2382,1771787723.9132087,465,1
2383,1771787723.9148896,477,1
2384,1771787723.9467878,486,1
2385,1771787723.9468207,504,1
2386,1771787723.948336,519,1
2387,1771787723.9499187,542,1
2388,1771787723.9825118,562,1
2389,1771787723.9825428,582,1
2390,1771787723.9862597,596,1
2391,1771787723.9862869,613,1
2392,1771787724.0160768,621,1
2393,1771787724.0179167,628,1
2394,1771787724.0198467,624,2
2395,1771787724.0565076,620,3
2396,1771787724.0565395,612,2
2397,1771787724.0565467,606,2
2398,1771787724.0835338,597,2
2399,1771787724.0847886,593,2
2400,1771787724.0873938,585,2
2401,1771787724.0932317,578,1
2402,1771787724.141317,568,1
2403,1771787724.1413496,561,1
2404,1771787724.1444876,551,1
2405,1771787724.1461678,545,1
2406,1771787724.1461816,536,1
2407,1771787724.1475797,530,1
2408,1771787724.1813207,523,0
2409,1771787724.181403,520,1
2410,1771787724.1826696,516,1
2411,1771787724.2152858,515,1
2412,1771787724.2153366,513,1
2413,1771787724.2166176,514,1
2414,1771787724.2187438,513,1
2415,1771787724.2498977,516,1
2416,1771787724.2504027,514,1
2417,1771787724.2521868,516,1
2418,1771787724.2627907,514,1
2419,1771787724.2933326,516,1
2420,1771787724.2933626,514,1
2421,1771787724.2951007,515,1
2422,1771787724.2966418,514,1
2423,1771787724.3333626,515,1
2424,1771787724.333392,513,1
2425,1771787724.3333998,514,1
2426,1771787724.3614867,510,1
2427,1771787724.3624957,507,0
2428,1771787724.3648877,499,1
2429,1771787724.3722327,497,1
2430,1771787724.4473987,492,1
2431,1771787724.4474216,491,1
2432,1771787724.4505088,486,1
2433,1771787724.4527576,486,1
2434,1771787724.4527926,481,1
2435,1771787724.4528008,480,1
2436,1771787724.4550257,477,1
2437,1771787724.4562907,478,1
2438,1771787724.4877558,477,1
2439,1771787724.4878366,477,1
2440,1771787724.4896836,475,1
2441,1771787724.4915118,478,1
2442,1771787724.5230658,475,1
2443,1771787724.5259569,475,1
2444,1771787724.5282435,472,0
2445,1771787724.5282576,472,0
2446,1771787724.5636756,470,1
2447,1771787724.5636885,471,1
2448,1771787724.5636928,467,1
2449,1771787724.5915816,466,0
2450,1771787724.5916104,462,1
2451,1771787724.5957394,462,0
2452,1771787724.5958695,460,0
2453,1771787724.6292844,462,0
2454,1771787724.6293075,460,1
2455,1771787724.6298535,461,1
2456,1771787724.6656375,460,1
2457,1771787724.6656754,460,0
2458,1771787724.6689754,458,1
2459,1771787724.6689985,460,1
2460,1771787724.6985912,457,1
2461,1771787724.7015424,460,1
2462,1771787724.7036724,460,1
2463,1771787724.7036855,464,0
2464,1771787724.7186882,464,1
2465,1771787724.7458704,471,1
2466,1771787724.7458973,477,1
2467,1771787724.7478812,489,0
2468,1771787724.8068395,502,1
2469,1771787724.8073344,523,1
2470,1771787724.8073575,543,1
2471,1771787724.8090756,568,1
2472,1771787724.8091013,588,1
2473,1771787724.8125243,609,1
2474,1771787724.8410795,624,2
2475,1771787724.8452456,637,2
2476,1771787724.8452692,642,2
2477,1771787724.8541465,647,2
2478,1771787724.8541794,644,2
2479,1771787724.8872643,639,1
2480,1771787724.8873184,632,2
2481,1771787724.8948724,624,1
2482,1771787724.8997223,611,1
2483,1771787724.9317124,602,1
2484,1771787724.9317563,589,1
2485,1771787724.9328213,579,1
2486,1771787724.9411926,565,1
2487,1771787724.9708924,559,1
2488,1771787724.9709253,550,0
2489,1771787724.9727094,542,1
2490,1771787725.0040064,533,1
2491,1771787725.0073423,528,1
2492,1771787725.0073743,524,1
2493,1771787725.0084336,522,1
2494,1771787725.0446165,516,1
2495,1771787725.0446644,518,1
2496,1771787725.0469835,516,0
2497,1771787725.0484493,521,1
2498,1771787725.1085463,521,1
2499,1771787725.1126564,524,1
2500,1771787725.1126933,526,1
2501,1771787725.1128924,527,1
2502,1771787725.1178615,525,1
2503,1771787725.1189113,526,1
2504,1771787725.1189764,522,1
2505,1771787725.1496904,522,1
2506,1771787725.1497374,517,1
2507,1771787725.1515303,518,1
2508,1771787725.1842096,513,0
2509,1771787725.1862586,512,1
2510,1771787725.1862774,508,1
2511,1771787725.1884534,508,1
2512,1771787725.2596073,504,1
2513,1771787725.2636933,502,1
2514,1771787725.2638733,498,1
2515,1771787725.3040144,496,1
2516,1771787725.3266184,492,1
2517,1771787725.3266594,491,1
2518,1771787725.3289886,487,1
2519,1771787725.3308854,489,1
2520,1771787725.3333695,485,1
2521,1771787725.3333883,485,1
2522,1771787725.3351965,482,1
2523,1771787725.3376064,480,1
2524,1771787725.3376224,475,1
2525,1771787725.3394635,475,1
2526,1771787725.3431005,472,1
2527,1771787725.3485212,470,1
2528,1771787725.4083655,468,1
2529,1771787725.4083865,468,1
2530,1771787725.4099433,464,1
2531,1771787725.4124215,466,1
2532,1771787725.4124346,465,1
2533,1771787725.4140594,465,1
2534,1771787725.4232664,460,1
2535,1771787725.4324794,460,0
2536,1771787725.4620314,458,1
2537,1771787725.4620745,457,1
2538,1771787725.4659894,455,1
2539,1771787725.4960842,456,1
2540,1771787725.4961264,455,0
2541,1771787725.4980536,460,1
2542,1771787725.4980843,461,1
2543,1771787725.5367634,464,1
2544,1771787725.5367954,465,1
2545,1771787725.5369704,471,1
2546,1771787725.5369844,478,1
2547,1771787725.5671744,494,1
2548,1771787725.5672054,512,1
2549,1771787725.5681612,536,1
2550,1771787725.6016464,560,1
2551,1771787725.6016824,589,1
2552,1771787725.6016934,612,1
2553,1771787725.6341903,638,2
2554,1771787725.6359375,655,2
2555,1771787725.6409874,670,2
2556,1771787725.6410134,678,2
2557,1771787725.6487772,682,2
2558,1771787725.7059333,678,2
2559,1771787725.7059665,675,2
2560,1771787725.7080054,667,2
2561,1771787725.7138703,662,2
2562,1771787725.7143984,651,2
2563,1771787725.7144113,643,2
2564,1771787725.7212083,631,2
2565,1771787725.7538164,621,1
2566,1771787725.7538474,611,1
2567,1771787725.7538736,603,1
2568,1771787725.7833693,591,1
2569,1771787725.7848973,580,1
2570,1771787725.7868183,566,1
2571,1771787725.7868414,557,1
2572,1771787725.8196073,543,1
2573,1771787725.8196425,535,1
2574,1771787725.8214664,527,1
2575,1771787725.8261294,526,1
2576,1771787725.8359923,522,1
2577,1771787725.8643622,523,1
2578,1771787725.8664534,522,1
2579,1771787725.8688054,526,1
2580,1771787725.8984983,525,1
2581,1771787725.9006813,527,1
2582,1771787725.9016654,526,1
2583,1771787725.9341824,527,1
2584,1771787725.9342234,524,0
2585,1771787725.9386094,526,1
2586,1771787725.9386384,523,1
2587,1771787726.0189505,522,1
2588,1771787726.0189846,517,1
2589,1771787726.0189915,516,1
2590,1771787726.0203433,511,1
2591,1771787726.0203564,511,1
2592,1771787726.0227873,506,1
2593,1771787726.0228064,502,1
2594,1771787726.0263374,496,1
2595,1771787726.0263684,493,1
2596,1771787726.0559924,487,0
2597,1771787726.0578835,483,1
2598,1771787726.0650895,475,1
2599,1771787726.0915043,474,0
2600,1771787726.0939004,470,1
2601,1771787726.0939202,470,1
2602,1771787726.1230354,467,1
2603,1771787726.1251805,467,0
2604,1771787726.1285684,464,0
2605,1771787726.1285985,464,1
2606,1771787726.1593225,460,1
2607,1771787726.1633494,460,1
2608,1771787726.1633735,457,1
2609,1771787726.1650746,458,1
2610,1771787726.1984093,456,1
2611,1771787726.1984515,455,1
2612,1771787726.2032883,453,1
2613,1771787726.2033014,453,0
2614,1771787726.2343404,451,1
2615,1771787726.2386463,454,1
2616,1771787726.2386804,453,1
2617,1771787726.3058972,455,0
2618,1771787726.3080332,453,1
2619,1771787726.3080633,453,1
2620,1771787726.3109422,451,1
2621,1771787726.3130693,452,0
2622,1771787726.3130903,449,1
2623,1771787726.3131034,451,1
2624,1771787726.3142993,451,0
2625,1771787726.3469944,456,1
2626,1771787726.3514326,460,1
2627,1771787726.3514574,470,1
2628,1771787726.3823555,479,1
2629,1771787726.3823974,497,1
2630,1771787726.3848524,516,1
2631,1771787726.3867154,545,1
2632,1771787726.3992133,569,1
2633,1771787726.4271894,600,1
2634,1771787726.4301212,624,1
2635,1771787726.4327435,651,2
2636,1771787726.4619255,666,2
2637,1771787726.4653113,679,2
2638,1771787726.4653294,685,2
2639,1771787726.4653385,690,2
2640,1771787726.5343225,686,1
2641,1771787726.5343664,684,2
2642,1771787726.5500283,675,2
2643,1771787726.5500693,668,2
2644,1771787726.5566955,655,2
2645,1771787726.5567224,648,2
2646,1771787726.5608056,639,2
2647,1771787726.5608354,633,1
2648,1771787726.5608485,625,1
2649,1771787726.6122966,617,1
2650,1771787726.6123724,607,1
2651,1771787726.6140382,597,1
2652,1771787726.6166413,583,1
2653,1771787726.6191673,572,1
2654,1771787726.6204824,560,1
2655,1771787726.6510844,551,1
2656,1771787726.6512523,542,1
2657,1771787726.6530545,536,1
2658,1771787726.6600616,529,1
2659,1771787726.6911604,527,1
2660,1771787726.6911933,525,1
2661,1771787726.6932254,527,1
2662,1771787726.7251973,527,1
2663,1771787726.7252383,528,1
2664,1771787726.7279346,527,1
2665,1771787726.7279572,530,1
2666,1771787726.7612252,528,1
2667,1771787726.7612545,529,1
2668,1771787726.7624605,527,1
2669,1771787726.7650874,527,1
2670,1771787726.7761455,523,1
2671,1771787726.8075633,520,1
2672,1771787726.8075984,515,1
2673,1771787726.8091245,512,1
2674,1771787726.8421323,504,1
2675,1771787726.8421674,500,1
2676,1771787726.8456306,494,1
2677,1771787726.8456504,489,1
2678,1771787726.9057245,483,1
2679,1771787726.9076355,480,1
2680,1771787726.9076414,473,1
2681,1771787726.9108074,470,1
2682,1771787726.9133964,463,1
2683,1771787726.9134114,461,1
2684,1771787726.9459155,458,0
2685,1771787726.9459553,460,1
2686,1771787726.9474874,459,1
2687,1771787726.9490664,461,1
2688,1771787726.9584994,459,0
2689,1771787726.9876425,457,0
2690,1771787726.9876735,455,1
2691,1771787726.9899144,455,0
2692,1771787727.0216203,451,0
2693,1771787727.0216515,451,0
2694,1771787727.0250583,448,1
2695,1771787727.0559876,448,0
2696,1771787727.0560284,443,1
2697,1771787727.0580225,444,0
2698,1771787727.0884373,443,1
2699,1771787727.0899942,443,0
2700,1771787727.0917563,439,0
2701,1771787727.0917745,438,0
2702,1771787727.0917873,436,1
2703,1771787727.1251276,439,0
2704,1771787727.1251624,438,0
2705,1771787727.1269195,439,0
2706,1771787727.1390812,436,1
2707,1771787727.2059653,438,0
2708,1771787727.2060094,437,0
2709,1771787727.2079594,439,0
2710,1771787727.2089944,438,0
2711,1771787727.2114913,441,0
2712,1771787727.2132754,439,0
2713,1771787727.2132986,441,0
2714,1771787727.2226944,439,1
2715,1771787727.2516136,440,0
2716,1771787727.2534983,437,0
2717,1771787727.2535195,440,0
2718,1771787727.2575183,440,1
2719,1771787727.2858725,443,0
2720,1771787727.2901034,446,0
2721,1771787727.2901323,455,1
2722,1771787727.3215654,464,1
2723,1771787727.3217053,483,1
2724,1771787727.3241713,502,1
2725,1771787727.3253524,528,1
2726,1771787727.3621373,556,1
2727,1771787727.3621805,588,1
2728,1771787727.3639934,618,1
2729,1771787727.3726704,646,2
2730,1771787727.4019694,667,2
2731,1771787727.4036756,681,2
2732,1771787727.4036894,688,2
2733,1771787727.4080954,694,2
2734,1771787727.4359393,690,2
2735,1771787727.4381354,686,2
2736,1771787727.4381604,676,1
2737,1771787727.5127285,666,2
2738,1771787727.5127766,652,2
2739,1771787727.5222323,641,2
2740,1771787727.5222645,627,1
2741,1771787727.5222874,618,1
2742,1771787727.5232463,606,1
2743,1771787727.5254114,597,1
2744,1771787727.5254214,584,1
2745,1771787727.5277054,574,1
2746,1771787727.5595863,563,1
2747,1771787727.5596273,556,1
2748,1771787727.5620184,545,1
2749,1771787727.5659716,539,1
2750,1771787727.5960195,532,1
2751,1771787727.5960584,531,1
2752,1771787727.5978115,527,1
2753,1771787727.6284876,531,1
2754,1771787727.6299744,531,1
2755,1771787727.6315434,533,1
2756,1771787727.6623504,531,1
2757,1771787727.6623924,532,1
2758,1771787727.6651874,532,1
2759,1771787727.6657603,531,1
2760,1771787727.6973174,529,1
2761,1771787727.6992614,530,1
2762,1771787727.7021055,526,1
2763,1771787727.7127242,525,1
2764,1771787727.7416973,520,1
2765,1771787727.7458184,518,1
2766,1771787727.7458673,512,1
2767,1771787727.7480915,508,1
2768,1771787727.8071294,500,1
2769,1771787727.8071725,496,1
2770,1771787727.8089392,487,1
2771,1771787727.8467612,482,1
2772,1771787727.8843822,474,1
2773,1771787727.8999803,472,1
2774,1771787727.9000406,466,1
2775,1771787727.9037783,462,1
2776,1771787727.9037936,453,0
2777,1771787727.9037993,449,0
2778,1771787727.9052944,444,1
2779,1771787727.9094386,444,0
2780,1771787727.9106023,439,0
2781,1771787727.9106214,438,0
2782,1771787727.9106343,434,0
2783,1771787727.9126394,435,0
2784,1771787727.9137475,433,0
2785,1771787727.9485233,435,0
2786,1771787727.9485643,433,0
2787,1771787727.9502454,436,0
2788,1771787727.9811513,434,0
2789,1771787727.9824705,434,0
2790,1771787727.9843333,430,0
2791,1771787727.9843595,433,0
2792,1771787728.0170794,430,0
2793,1771787728.0171125,433,0
2794,1771787728.0188544,433,1
2795,1771787728.0526865,435,0
2796,1771787728.0527294,432,0
2797,1771787728.0535474,432,0
2798,1771787728.0572324,429,0
2799,1771787728.1099753,429,0
2800,1771787728.1133735,427,0
2801,1771787728.1133873,428,0
2802,1771787728.1164434,425,0
2803,1771787728.1164644,426,0
2804,1771787728.1192093,420,0
2805,1771787728.1508613,425,0
2806,1771787728.1508913,422,0
2807,1771787728.1526275,422,0
2808,1771787728.1838932,419,0
2809,1771787728.1861274,422,0
2810,1771787728.1861506,420,0
2811,1771787728.1882296,420,0
2812,1771787728.2195864,420,0
2813,1771787728.2196274,421,0
2814,1771787728.2223656,417,0
2815,1771787728.2259223,420,0
2816,1771787728.2363396,422,0
2817,1771787728.2695215,428,0
2818,1771787728.2695603,433,0
2819,1771787728.2714725,443,0
2820,1771787728.2801325,451,0
2821,1771787728.3082705,469,1
2822,1771787728.3114364,488,1
2823,1771787728.3114614,514,1
2824,1771787728.3450663,537,0
2825,1771787728.3454704,566,1
2826,1771787728.3465025,590,1
2827,1771787728.3489885,615,1
2828,1771787728.4057865,632,1
2829,1771787728.4058123,649,2
2830,1771787728.4077663,655,2
2831,1771787728.4089184,660,2
2832,1771787728.4111545,654,2
2833,1771787728.4129665,651,2
2834,1771787728.4152412,641,2
2835,1771787728.4285824,637,2
2836,1771787728.4585865,627,1
2837,1771787728.4586244,622,1
2838,1771787728.4602594,611,1
2839,1771787728.4909904,603,1
2840,1771787728.4931374,591,1
2841,1771787728.4941044,582,1
2842,1771787728.5245752,568,1
2843,1771787728.5246155,558,1
2844,1771787728.5261784,545,0
2845,1771787728.5283453,535,1
2846,1771787728.5595496,522,1
2847,1771787728.5640664,517,1
2848,1771787728.5640945,511,1
2849,1771787728.5641234,508,1
2850,1771787728.5971706,505,1
2851,1771787728.5999153,507,1
2852,1771787728.5999434,504,1
2853,1771787728.6142764,507,1
2854,1771787728.6396866,505,1
2855,1771787728.6397274,508,1
2856,1771787728.6417413,507,1
2857,1771787728.7058585,509,1
2858,1771787728.7058983,507,1
2859,1771787728.7085385,508,1
2860,1771787728.7095823,505,1
2861,1771787728.7113054,504,1
2862,1771787728.7139125,500,1
2863,1771787728.7154233,501,1
2864,1771787728.7154384,496,1
2865,1771787728.7493184,496,1
2866,1771787728.7493525,491,1
2867,1771787728.7503755,488,1
2868,1771787728.7822645,482,1
2869,1771787728.7829494,480,1
2870,1771787728.7837973,475,1
2871,1771787728.7877085,472,1
2872,1771787728.8217924,467,1
2873,1771787728.8249824,465,1
2874,1771787728.8287044,458,1
2875,1771787728.8287284,453,0
2876,1771787728.8601644,446,0
2877,1771787728.8617313,446,0
2878,1771787728.8646333,443,0
2879,1771787728.8646574,445,0
2880,1771787728.8984423,441,0
2881,1771787728.8984673,443,0
2882,1771787728.9009273,439,1
2883,1771787728.9305525,440,0
2884,1771787728.9305863,437,0
2885,1771787728.9337592,438,0
2886,1771787728.9643795,434,0
2887,1771787728.9644203,436,0
2888,1771787729.0145984,433,0
2889,1771787729.0146394,434,0
2890,1771787729.0164802,430,1
2891,1771787729.0209963,432,0
2892,1771787729.0210285,432,0
2893,1771787729.0210435,433,0
2894,1771787729.0263026,432,1
2895,1771787729.0263164,434,0
2896,1771787729.0937634,432,0
2897,1771787729.0938005,433,0
2898,1771787729.1286275,431,0
2899,1771787729.1300304,431,0
2900,1771787729.1328695,427,0
2901,1771787729.1329014,428,0
2902,1771787729.1352715,426,0
2903,1771787729.1352916,429,0
2904,1771787729.1395333,429,0
2905,1771787729.1395633,431,0
2906,1771787729.1410332,430,0
2907,1771787729.1716974,434,0
2908,1771787729.1733882,432,0
2909,1771787729.1757915,435,0
2910,1771787729.1791193,432,0
2911,1771787729.1875904,435,0
2912,1771787729.218083,434,0
2913,1771787729.2181182,437,0
2914,1771787729.219867,440,1
2915,1771787729.2544181,448,0
2916,1771787729.256467,454,1
2917,1771787729.25649,467,1
2918,1771787729.256502,480,1
2919,1771787729.2902398,498,1
2920,1771787729.290273,518,1
2921,1771787729.292299,545,1
2922,1771787729.324534,567,1
2923,1771787729.3261302,590,1
2924,1771787729.327894,607,1
2925,1771787729.3279212,622,1
2926,1771787729.397092,630,2
2927,1771787729.397123,635,2
2928,1771787729.399398,633,2
2929,1771787729.4040408,632,2
2930,1771787729.404066,622,2
2931,1771787729.404109,615,1
2932,1771787729.406534,602,1
2933,1771787729.4096832,594,1
2934,1771787729.440512,579,1
2935,1771787729.440541,571,1
2936,1771787729.442648,560,1
2937,1771787729.478115,551,1
2938,1771787729.481286,539,1
2939,1771787729.481304,530,1
2940,1771787729.481334,517,1
2941,1771787729.5153341,508,1
2942,1771787729.515364,498,1
2943,1771787729.516799,494,1
2944,1771787729.5168118,490,1
2945,1771787729.587012,491,1
2946,1771787729.5885859,489,1
2947,1771787729.591084,491,1
2948,1771787729.6248372,491,1
2949,1771787729.6260562,495,1
2950,1771787729.627886,495,1
2951,1771787729.627906,501,1
2952,1771787729.62973,501,1
2953,1771787729.6319358,503,1
2954,1771787729.63372,502,1
2955,1771787729.6363912,504,1
2956,1771787729.64713,503,1
2957,1771787729.6484551,502,1
2958,1771787729.704217,498,1
2959,1771787729.704247,499,1
2960,1771787729.704339,494,1
2961,1771787729.704386,492,1
2962,1771787729.709841,485,1
2963,1771787729.709867,482,1
2964,1771787729.7402139,476,1
2965,1771787729.74256,472,1
2966,1771787729.7425818,471,1
2967,1771787729.775515,471,1
2968,1771787729.775594,465,0
2969,1771787729.7771251,464,1
2970,1771787729.77867,459,1
2971,1771787729.811337,457,0
2972,1771787729.8113792,452,1
2973,1771787729.814179,452,1
2974,1771787729.815732,451,1
2975,1771787729.8495631,452,0
2976,1771787729.849594,448,0
2977,1771787729.849602,449,0
2978,1771787729.883029,446,1
2979,1771787729.8848612,445,0
2980,1771787729.884876,441,0
2981,1771787729.88638,443,0
2982,1771787729.9203792,441,0
2983,1771787729.9204688,441,0
2984,1771787729.922106,438,1
2985,1771787729.953837,439,0
2986,1771787729.953867,436,1
2987,1771787729.956701,438,0
2988,1771787729.998741,435,1
2989,1771787729.998769,439,0
2990,1771787730.00143,439,1
2991,1771787730.003543,443,0
2992,1771787730.00356,442,0
2993,1771787730.0052779,446,0
2994,1771787730.038069,444,0
2995,1771787730.038099,446,0
2996,1771787730.039876,446,0
2997,1771787730.069979,448,0
2998,1771787730.072092,447,1
2999,1771787730.073773,444,0
3000,1771787730.1056712,440,0
3001,1771787730.105704,440,0
3002,1771787730.1072192,435,0
3003,1771787730.108802,437,0
3004,1771787730.141395,438,0
3005,1771787730.141426,440,0
3006,1771787730.145143,439,0
3007,1771787730.1451702,444,0
3008,1771787730.1749601,445,0
3009,1771787730.1768,455,1
3010,1771787730.17873,462,1
3011,1771787730.215391,477,1
3012,1771787730.2154229,492,0
3013,1771787730.21543,513,1
3014,1771787730.242417,533,1
3015,1771787730.243672,557,1
3016,1771787730.246277,576,1
3017,1771787730.252115,596,1
3018,1771787730.3002002,611,2
3019,1771787730.300233,626,1
3020,1771787730.303371,631,1
3021,1771787730.305051,633,2
3022,1771787730.305065,629,2
3023,1771787730.306463,625,1
3024,1771787730.340204,615,1
3025,1771787730.3402863,606,1
3026,1771787730.341553,595,1
3027,1771787730.374169,588,1
3028,1771787730.37422,578,1
3029,1771787730.375501,572,1
3030,1771787730.3776271,561,1
3031,1771787730.408781,555,1
3032,1771787730.409286,545,0
3033,1771787730.41107,539,1
3034,1771787730.421674,530,1
3035,1771787730.452216,523,1
3036,1771787730.452246,515,1
3037,1771787730.453984,511,1
3038,1771787730.4555252,504,1
3039,1771787730.492246,504,1
3040,1771787730.4922752,501,1
3041,1771787730.492283,503,1
3042,1771787730.52037,501,1
3043,1771787730.521379,505,1
3044,1771787730.523771,505,1
3045,1771787730.531116,508,1
3046,1771787730.606282,505,1
3047,1771787730.606305,507,1
3048,1771787730.6093922,505,1
3049,1771787730.611641,507,1
3050,1771787730.611676,502,1
3051,1771787730.611684,502,1
3052,1771787730.613909,496,1
3053,1771787730.615174,495,1
3054,1771787730.646639,492,1
3055,1771787730.64672,492,1
3056,1771787730.648567,488,1
3057,1771787730.6503952,488,1
3058,1771787730.6819491,485,1
3059,1771787730.6848402,483,1
3060,1771787730.6871269,478,1
3061,1771787730.687141,478,1
3062,1771787730.722559,471,1
3063,1771787730.7225718,470,1
3064,1771787730.7225761,465,0
3065,1771787730.7309072,465,1
3066,1771787730.759229,462,1
3067,1771787730.7628942,464,1
3068,1771787730.762953,461,1
3069,1771787730.7953663,460,1
3070,1771787730.7982852,457,1
3071,1771787730.7983863,458,1
3072,1771787730.7985423,455,1
3073,1771787730.8063602,455,0
3074,1771787730.894848,451,1
3075,1771787730.894889,453,1
3076,1771787730.8948991,448,0
3077,1771787730.9329722,448,0
3078,1771787730.9495203,447,1
3079,1771787730.9495502,452,0
3080,1771787730.950797,452,1
3081,1771787730.9540513,454,0
3082,1771787730.9540772,451,1
3083,1771787730.955338,451,0
3084,1771787730.9582622,449,1
3085,1771787730.958275,451,0
3086,1771787730.961044,449,1
3087,1771787730.961069,451,1
3088,1771787730.9638262,451,1
3089,1771787730.9638512,452,0
3090,1771787730.9952621,449,1
3091,1771787730.9977722,450,0
3092,1771787730.9977982,448,0
3093,1771787731.03022,448,0
3094,1771787731.030249,446,1
3095,1771787731.0324423,449,0
3096,1771787731.0368512,448,0
3097,1771787731.066102,451,1
3098,1771787731.066142,451,1
3099,1771787731.0699263,457,0
3100,1771787731.099328,461,1
3101,1771787731.1007931,472,1
3102,1771787731.1035652,483,1
3103,1771787731.1035962,500,1
3104,1771787731.1389391,518,1
3105,1771787731.1389813,538,1
3106,1771787731.1405923,558,1
3107,1771787731.196715,579,1
3108,1771787731.1988213,595,1
3109,1771787731.198841,611,1
3110,1771787731.2008073,622,2
3111,1771787731.2033591,631,2
3112,1771787731.2060292,632,2
3113,1771787731.206088,631,1
3114,1771787731.239308,624,1
3115,1771787731.2398794,617,1
3116,1771787731.2399313,607,1
3117,1771787731.272705,598,1
3118,1771787731.272735,587,1
3119,1771787731.2745202,579,1
3120,1771787731.2771223,570,0
3121,1771787731.3065581,562,1
3122,1771787731.3097103,551,1
3123,1771787731.309737,545,1
3124,1771787731.3168292,536,1
3125,1771787731.3252382,530,1
3126,1771787731.356053,523,1
3127,1771787731.3583293,519,1
3128,1771787731.3583372,513,0
3129,1771787731.3911753,511,1
3130,1771787731.3912072,508,1
3131,1771787731.4008121,509,1
3132,1771787731.4008493,504,1
3133,1771787731.430249,505,1
3134,1771787731.4302893,506,1
3135,1771787731.4340234,510,1
3136,1771787731.4340422,509,1
3137,1771787731.496819,509,1
3138,1771787731.4994283,509,1
3139,1771787731.4994502,512,1
3140,1771787731.500586,512,1
3141,1771787731.5054233,512,1
3142,1771787731.5054443,511,1
3143,1771787731.505449,512,1
3144,1771787731.5420454,510,1
3145,1771787731.5440702,510,1
3146,1771787731.544099,507,1
3147,1771787731.5461292,502,1
3148,1771787731.5777843,495,1
3149,1771787731.5778842,491,1
3150,1771787731.5796213,485,1
3151,1771787731.5832021,483,1
3152,1771787731.6145642,480,1
3153,1771787731.614622,478,1
3154,1771787731.616609,473,1
3155,1771787731.6479213,472,1
3156,1771787731.6479523,467,1
3157,1771787731.6517413,468,1
3158,1771787731.6817522,465,1
3159,1771787731.6818051,466,1
3160,1771787731.6835742,463,1
3161,1771787731.690367,464,1
3162,1771787731.7190142,463,1
3163,1771787731.7209973,459,1
3164,1771787731.723211,458,0
3165,1771787731.7323112,455,0
3166,1771787731.73582,455,1
3167,1771787731.7928903,451,1
3168,1771787731.7929301,452,0
3169,1771787731.7948852,448,0
3170,1771787731.796307,449,0
3171,1771787731.799432,446,1
3172,1771787731.801768,445,0
3173,1771787731.8317652,442,0
3174,1771787731.8319643,443,0
3175,1771787731.8340492,441,1
3176,1771787731.8340743,442,0
3177,1771787731.864931,439,0
3178,1771787731.868521,441,0
3179,1771787731.868535,440,1
3180,1771787731.900382,443,0
3181,1771787731.9004302,439,0
3182,1771787731.902525,440,1
3183,1771787731.9075804,439,1
3184,1771787731.9361103,439,0
3185,1771787731.9361513,439,0
3186,1771787731.9375062,441,0
3187,1771787731.9702861,440,0
3188,1771787731.970325,441,0
3189,1771787731.9735272,440,0
3190,1771787731.973748,441,0
3191,1771787732.0053492,440,1
3192,1771787732.0053923,443,0
3193,1771787732.0070782,443,0
3194,1771787732.040307,448,0
3195,1771787732.0403411,453,1
3196,1771787732.0424252,467,1
3197,1771787732.0537431,480,1
3198,1771787732.097013,502,1
3199,1771787732.099766,521,1
3200,1771787732.134783,547,1
3201,1771787732.15721,570,1
3202,1771787732.1572292,593,1
3203,1771787732.1594102,609,1
3204,1771787732.1616442,625,1
3205,1771787732.1647472,633,1
3206,1771787732.164757,639,1
3207,1771787732.1669693,639,2
3208,1771787732.1669834,636,1
3209,1771787732.168503,628,1
3210,1771787732.2007272,620,1
3211,1771787732.2007623,609,2
3212,1771787732.2041922,600,1
3213,1771787732.239191,586,0
3214,1771787732.240787,576,1
3215,1771787732.2408073,563,1
3216,1771787732.2426703,556,1
3217,1771787732.2426913,545,1
3218,1771787732.2754183,538,1
3219,1771787732.275468,527,1
3220,1771787732.2775462,520,1
3221,1771787732.310882,513,1
3222,1771787732.3109171,510,1
3223,1771787732.312246,504,1
3224,1771787732.3148754,504,1
3225,1771787732.3463383,503,1
3226,1771787732.3510861,504,1
3227,1771787732.351097,506,1
3228,1771787732.396137,510,1
3229,1771787732.3961642,510,1
3230,1771787732.396172,512,1
3231,1771787732.3982983,512,1
3232,1771787732.4006212,512,1
3233,1771787732.4050732,508,1
3234,1771787732.4359841,509,1
3235,1771787732.4360251,506,1
3236,1771787732.43823,504,1
3237,1771787732.4666612,499,1
3238,1771787732.4775631,499,1
3239,1771787732.4775832,493,1
3240,1771787732.4795163,492,1
3241,1771787732.5081203,487,1
3242,1771787732.5112152,488,1
3243,1771787732.5165231,484,1
3244,1771787732.5414312,481,1
3245,1771787732.543294,477,1
3246,1771787732.5475452,475,1
3247,1771787732.5475612,470,1
3248,1771787732.5784812,467,1
3249,1771787732.586313,464,0
3250,1771787732.5863383,464,0
3251,1771787732.5863452,462,1
3252,1771787732.6162932,463,1
3253,1771787732.6163402,460,1
3254,1771787732.618304,460,1
3255,1771787732.6476512,456,1
3256,1771787732.6491172,456,0
3257,1771787732.6492853,454,0
3258,1771787732.6967204,455,0
3259,1771787732.6987991,452,1
3260,1771787732.6988232,452,1
3261,1771787732.700747,449,0
3262,1771787732.7021272,450,0
3263,1771787732.706113,447,1
3264,1771787732.7362902,448,0
3265,1771787732.7397933,446,0
3266,1771787732.739816,448,0
3267,1771787732.7702563,445,1
3268,1771787732.7702873,446,0
3269,1771787732.7724493,442,0
3270,1771787732.7797933,445,0
3271,1771787732.8078682,441,1
3272,1771787732.807903,440,0
3273,1771787732.807914,436,0
3274,1771787732.839863,439,0
3275,1771787732.8426633,436,0
3276,1771787732.8426862,440,0
3277,1771787732.851656,438,0
3278,1771787732.8516881,442,0
3279,1771787732.8829613,442,1
3280,1771787732.8830023,444,0
3281,1771787732.8868601,440,0
3282,1771787732.917897,441,0
3283,1771787732.9179332,438,0
3284,1771787732.9197602,439,0
3285,1771787732.9284081,438,0
3286,1771787732.9972444,442,0
3287,1771787732.99967,443,1
3288,1771787732.9996922,451,1
3289,1771787733.0016983,459,1
3290,1771787733.0092423,473,1
3291,1771787733.0092742,487,1
3292,1771787733.0092843,508,1
3293,1771787733.0107772,527,0
3294,1771787733.019766,552,1
3295,1771787733.019798,573,1
3296,1771787733.052823,593,1
3297,1771787733.0528562,607,1
3298,1771787733.056714,622,1
3299,1771787733.087208,628,2
3300,1771787733.0872252,636,1
3301,1771787733.0895362,635,1
3302,1771787733.1291363,635,2
3303,1771787733.129163,629,2
3304,1771787733.1308942,623,1
3305,1771787733.136938,613,1
3306,1771787733.166366,606,1
3307,1771787733.166412,597,1
3308,1771787733.1669183,588,1
3309,1771787733.1691232,579,1
3310,1771787733.1846352,573,1
3311,1771787733.2129831,563,1
3312,1771787733.2130241,556,1
3313,1771787733.216799,546,1
3314,1771787733.2209952,537,1
3315,1771787733.2210062,527,1
3316,1771787733.2930691,521,1
3317,1771787733.2963133,513,1
3318,1771787733.2963462,510,1
3319,1771787733.29636,505,1
3320,1771787733.2987382,508,1
3321,1771787733.301016,508,1
3322,1771787733.3010314,510,1
3323,1771787733.3097382,509,1
3324,1771787733.339693,511,1
3325,1771787733.339724,509,1
3326,1771787733.3415432,511,1
3327,1771787733.341555,508,1
3328,1771787733.3756902,510,1
3329,1771787733.375742,509,1
3330,1771787733.376255,508,1
3331,1771787733.3957632,506,1
3332,1771787733.4317012,507,1
3333,1771787733.4721692,504,1
3334,1771787733.4733713,504,1
3335,1771787733.4733803,502,1
3336,1771787733.4749913,501,1
3337,1771787733.4749982,495,0
3338,1771787733.477215,491,1
3339,1771787733.4797332,487,1
3340,1771787733.4810681,486,1
3341,1771787733.516555,482,1
3342,1771787733.5180361,482,1
3343,1771787733.518059,479,1
3344,1771787733.5195231,477,1
3345,1771787733.5487733,471,0
3346,1771787733.5488052,467,1
3347,1771787733.5509822,462,1
3348,1771787733.6092622,461,1
3349,1771787733.6092923,458,1
3350,1771787733.609299,457,1
3351,1771787733.6093051,452,1
3352,1771787733.609311,452,0
3353,1771787733.6110003,449,0
3354,1771787733.643243,451,0
3355,1771787733.648385,449,1
3356,1771787733.648405,452,0
3357,1771787733.6484134,452,0
3358,1771787733.684235,453,0
3359,1771787733.687371,452,1
3360,1771787733.687401,455,0
3361,1771787733.6874142,454,0
3362,1771787733.7202842,455,1
3363,1771787733.7236152,452,1
3364,1771787733.7236602,452,0
3365,1771787733.7236722,450,1
3366,1771787733.7552693,450,0
3367,1771787733.7593653,445,1
3368,1771787733.7593951,446,0
3369,1771787733.7905822,442,0
3370,1771787733.7906132,444,0
3371,1771787733.792087,443,1
3372,1771787733.799613,444,0
3373,1771787733.828756,442,0
3374,1771787733.8309782,446,1
3375,1771787733.8326752,446,1
3376,1771787733.8326862,449,0
3377,1771787733.8666801,450,1
3378,1771787733.866709,453,0
3379,1771787733.8669734,455,1
3380,1771787733.899192,463,1
3381,1771787733.900118,471,1
3382,1771787733.9017653,483,1
3383,1771787733.903337,496,1
3384,1771787733.9603631,519,1
3385,1771787733.960405,538,1
3386,1771787733.9622622,561,1
3387,1771787733.9667132,579,1
3388,1771787733.9676743,599,1
3389,1771787733.9676962,612,1
3390,1771787734.006634,624,1
3391,1771787734.0066702,631,2
3392,1771787734.006679,636,1
3393,1771787734.006689,632,2
3394,1771787734.0398684,630,1
3395,1771787734.0398972,621,1
3396,1771787734.0440261,615,1
3397,1771787734.0441563,605,1
3398,1771787734.0775712,598,1
3399,1771787734.0775943,586,1
3400,1771787734.0781403,579,1
3401,1771787734.1139243,569,0
3402,1771787734.1139622,564,1
3403,1771787734.1172621,555,1
3404,1771787734.1172853,548,1
3405,1771787734.146878,539,1
3406,1771787734.1498291,535,1
3407,1771787734.1519592,527,1
3408,1771787734.1519723,523,1
3409,1771787734.166975,515,1
3410,1771787734.1941571,511,1
3411,1771787734.194184,504,1
3412,1771787734.196168,500,1
3413,1771787734.2551262,496,1
3414,1771787734.2556212,498,1
3415,1771787734.2556443,494,1
3416,1771787734.2573624,499,1
3417,1771787734.257388,500,1
3418,1771787734.260811,505,1
3419,1771787734.2893662,505,1
3420,1771787734.2935324,507,1
3421,1771787734.293556,504,1
3422,1771787734.3024333,505,1
3423,1771787734.3024662,502,1
3424,1771787734.335551,502,1
3425,1771787734.3356051,499,1
3426,1771787734.3431592,500,1
3427,1771787734.348009,498,1
3428,1771787734.3799992,499,1
3429,1771787734.380043,496,1
3430,1771787734.381108,496,1
3431,1771787734.3894794,491,1
3432,1771787734.4191792,491,1
3433,1771787734.419212,484,0
3434,1771787734.4209962,481,1
3435,1771787734.4522932,476,1
3436,1771787734.455629,473,1
3437,1771787734.455661,468,1
3438,1771787734.4567204,467,1
3439,1771787734.4929032,464,1
3440,1771787734.4929512,467,1
3441,1771787734.4952703,463,1
3442,1771787734.496736,463,1
3443,1771787734.556833,460,1
3444,1771787734.5609431,460,1
3445,1771787734.56098,455,0
3446,1771787734.5611792,454,1
3447,1771787734.5661483,452,1
3448,1771787734.567198,455,0
3449,1771787734.5672631,452,1
3450,1771787734.5979772,455,0
3451,1771787734.5980241,454,1
3452,1771787734.599817,457,0
3453,1771787734.6324964,455,0
3454,1771787734.6345453,457,1
3455,1771787734.6345642,455,1
3456,1771787734.6367402,458,1
3457,1771787734.707894,456,1
3458,1771787734.71198,457,0
3459,1771787734.71216,455,1
3460,1771787734.7523012,455,0
3461,1771787734.7749052,453,1
3462,1771787734.7749462,454,0
3463,1771787734.7772753,451,1
3464,1771787734.7791722,454,0
3465,1771787734.7816563,453,1
3466,1771787734.781675,459,1
3467,1771787734.7834833,465,1
3468,1771787734.7858932,477,1
3469,1771787734.7859092,486,1
3470,1771787734.7877502,504,1
3471,1771787734.7913873,519,1
3472,1771787734.796808,542,1
3473,1771787734.8566523,562,1
3474,1771787734.8566732,582,1
3475,1771787734.85823,596,1
3476,1771787734.8607082,613,1
3477,1771787734.8607213,621,1
3478,1771787734.8623462,628,1
3479,1771787734.8715532,624,2
3480,1771787734.8807662,623,1
3481,1771787734.9103181,615,1
3482,1771787734.9103613,608,1
3483,1771787734.9142761,596,1
3484,1771787734.944371,586,1
3485,1771787734.9444132,574,1
3486,1771787734.9463403,567,1
3487,1771787734.946371,556,1
3488,1771787734.9850502,550,1
3489,1771787734.9850821,541,0
3490,1771787734.9852571,538,1
3491,1771787734.9852712,530,1
3492,1771787735.0154612,524,1
3493,1771787735.0154922,514,1
3494,1771787735.016448,511,1
3495,1771787735.0499332,504,1
3496,1771787735.0499692,506,1
3497,1771787735.0499802,506,0
3498,1771787735.082477,510,1
3499,1771787735.0842242,511,1
3500,1771787735.0892742,515,1
3501,1771787735.0893002,516,1
3502,1771787735.097064,521,1
3503,1771787735.15422,523,1
3504,1771787735.1542532,526,1
3505,1771787735.1562922,523,1
3506,1771787735.1576397,524,1
3507,1771787735.1607347,522,1
3508,1771787735.1660426,521,1
3509,1771787735.1909506,516,1
3510,1771787735.1928134,515,1
3511,1771787735.1970646,511,1
3512,1771787735.1970806,511,1
3513,1771787735.2280006,505,1
3514,1771787735.2358325,504,1
3515,1771787735.2358577,497,1
3516,1771787735.2358646,495,1
3517,1771787735.2658126,488,1
3518,1771787735.2658596,487,1
3519,1771787735.2678235,482,1
3520,1771787735.2971706,480,1
3521,1771787735.2986367,475,1
3522,1771787735.2988048,473,1
3523,1771787735.3462398,469,1
3524,1771787735.3483186,469,1
3525,1771787735.3483427,465,1
3526,1771787735.3502665,465,1
3527,1771787735.3516467,463,1
3528,1771787735.3556325,466,1
3529,1771787735.3858097,463,1
3530,1771787735.3893127,463,1
3531,1771787735.3893354,464,1
3532,1771787735.4197757,469,1
3533,1771787735.4198067,468,0
3534,1771787735.4219687,470,1
3535,1771787735.4293127,466,1
3536,1771787735.4573877,467,1
3537,1771787735.4574225,463,1
3538,1771787735.4574335,463,0
3539,1771787735.4893825,459,1
3540,1771787735.4921827,460,0
3541,1771787735.4922056,458,0
3542,1771787735.5011754,460,0
3543,1771787735.5012076,459,1
3544,1771787735.5324807,460,1
3545,1771787735.5325217,460,1
3546,1771787735.5363796,460,0
3547,1771787735.5674164,458,1
3548,1771787735.5674527,460,1
3549,1771787735.5692797,457,1
3550,1771787735.5779276,460,1
3551,1771787735.6467638,460,1
3552,1771787735.6491895,464,0
3553,1771787735.6492116,464,1
3554,1771787735.6512177,471,1
3555,1771787735.6587617,477,1
3556,1771787735.6587937,489,0
3557,1771787735.6588037,502,1
3558,1771787735.6602967,523,1
3559,1771787735.6692855,543,1
3560,1771787735.6693175,568,1
3561,1771787735.7023425,588,1
3562,1771787735.7023757,609,1
3563,1771787735.7062335,624,2
3564,1771787735.7367275,637,2
3565,1771787735.7367446,642,2
3566,1771787735.7390556,647,2
3567,1771787735.7786558,644,2
3568,1771787735.7786825,639,1
3569,1771787735.7804136,632,2
3570,1771787735.7864575,624,1
3571,1771787735.8158855,611,1
3572,1771787735.8159316,602,1
3573,1771787735.8164377,589,1
3574,1771787735.8186426,579,1
3575,1771787735.8341546,565,1
3576,1771787735.8625026,559,1
3577,1771787735.8625436,550,0
3578,1771787735.8663185,542,1
3579,1771787735.8705146,533,1
3580,1771787735.8705256,528,1
3581,1771787735.9425886,524,1
3582,1771787735.9458327,522,1
3583,1771787735.9458656,516,1
3584,1771787735.9458795,518,1
3585,1771787735.9482577,516,0
3586,1771787735.9505355,521,1
3587,1771787735.9505508,521,1
3588,1771787735.9592576,524,1
3589,1771787735.9892125,526,1
3590,1771787735.9892435,527,1
3591,1771787735.9910626,525,1
3592,1771787735.9910746,526,1
3593,1771787736.0252097,522,1
3594,1771787736.0252614,522,1
3595,1771787736.0257745,517,1
3596,1771787736.0452826,518,1
3597,1771787736.0812206,513,0
3598,1771787736.1216886,512,1
3599,1771787736.1228907,508,1
3600,1771787736.1228998,508,1
3601,1771787736.1245108,504,1
3602,1771787736.1245177,502,1
3603,1771787736.1267345,498,1
3604,1771787736.1292527,496,1
3605,1771787736.1305876,492,1
3606,1771787736.1660745,491,1
3607,1771787736.1675556,487,1
3608,1771787736.1675785,489,1
3609,1771787736.1690426,485,1
3610,1771787736.1982927,485,1
3611,1771787736.1983247,482,1
3612,1771787736.2005017,480,1
3613,1771787736.2587817,475,1
3614,1771787736.2588117,475,1
3615,1771787736.2588184,472,1
3616,1771787736.2588246,470,1
3617,1771787736.2588305,468,1
3618,1771787736.2605197,468,1
3619,1771787736.2927625,464,1
3620,1771787736.2979045,466,1
3621,1771787736.2979245,465,1
3622,1771787736.2979329,465,1
3623,1771787736.3337545,460,1
3624,1771787736.3368905,460,0
3625,1771787736.3369205,458,1
3626,1771787736.3369336,457,1
3627,1771787736.3698037,455,1
3628,1771787736.3731346,456,1
3629,1771787736.3731797,455,0
3630,1771787736.3731916,460,1
3631,1771787736.4047887,461,1
3632,1771787736.4088848,464,1
3633,1771787736.4089146,465,1
3634,1771787736.4401016,471,1
3635,1771787736.4401326,478,1
3636,1771787736.4416065,494,1
3637,1771787736.4491324,512,1
3638,1771787736.4782755,536,1
3639,1771787736.4804976,560,1
3640,1771787736.4821947,589,1
3641,1771787736.4822056,612,1
3642,1771787736.5161996,638,2
3643,1771787736.5162284,655,2
3644,1771787736.5164928,670,2
3645,1771787736.5487115,678,2
3646,1771787736.5496376,682,2
3647,1771787736.5512848,678,2
3648,1771787736.5528564,675,2
3649,1771787736.6098826,667,2
3650,1771787736.6099246,662,2
3651,1771787736.6117816,651,2
3652,1771787736.6162326,643,2
3653,1771787736.6171937,631,2
3654,1771787736.6172156,621,1
3655,1771787736.6561534,611,1
3656,1771787736.6561897,603,1
3657,1771787736.6561985,591,1
3658,1771787736.6562085,580,1
3659,1771787736.6893878,566,1
3660,1771787736.6894166,557,1
3661,1771787736.6935456,543,1
3662,1771787736.6936758,535,1
3663,1771787736.7270906,527,1
3664,1771787736.7271137,526,1
3665,1771787736.7276597,522,1
3666,1771787736.7634437,523,1
3667,1771787736.7634816,522,1
3668,1771787736.7667816,526,1
3669,1771787736.7668047,525,1
3670,1771787736.7963974,527,1
3671,1771787736.7993486,526,1
3672,1771787736.8014786,527,1
3673,1771787736.8014917,524,0
3674,1771787736.8164945,526,1
3675,1771787736.8436766,523,1
3676,1771787736.8437035,522,1
3677,1771787736.8456874,517,1
3678,1771787736.9046457,516,1
3679,1771787736.9051406,511,1
3680,1771787736.9051638,511,1
3681,1771787736.9068818,506,1
3682,1771787736.9069076,502,1
3683,1771787736.9103305,496,1
3684,1771787736.9388857,493,1
3685,1771787736.9430518,487,0
3686,1771787736.9430754,483,1
3687,1771787736.9519527,475,1
3688,1771787736.9519856,474,0
3689,1771787736.9850705,470,1
3690,1771787736.9851246,470,1
3691,1771787736.9926786,467,1
3692,1771787736.9975286,467,0
3693,1771787737.0295186,464,0
3694,1771787737.0295625,464,1
3695,1771787737.0306275,460,1
3696,1771787737.0389988,460,1
3697,1771787737.0686986,457,1
3698,1771787737.0687315,458,1
3699,1771787737.0705156,456,1
3700,1771787737.1018126,455,1
3701,1771787737.1051486,453,1
3702,1771787737.1051805,453,0
3703,1771787737.1062398,451,1
3704,1771787737.1424227,454,1
3705,1771787737.1424706,453,1
3706,1771787737.1447897,455,0
3707,1771787737.1462555,453,1
3708,1771787737.2063525,453,1
3709,1771787737.2104626,451,1
3710,1771787737.2104995,452,0
3711,1771787737.2106986,449,1
3712,1771787737.2156677,451,1
3713,1771787737.2167175,451,0
3714,1771787737.2167826,456,1
3715,1771787737.2474966,460,1
3716,1771787737.2475436,470,1
3717,1771787737.2493365,479,1
3718,1771787737.2820158,497,1
3719,1771787737.2840648,516,1
3720,1771787737.2840836,545,1
3721,1771787737.2862597,569,1
3722,1771787737.3574135,600,1
3723,1771787737.3614995,624,1
3724,1771787737.3616796,651,2
3725,1771787737.4018207,666,2
3726,1771787737.4244246,679,2
3727,1771787737.4244657,685,2
3728,1771787737.4267948,690,2
3729,1771787737.4286916,686,1
3730,1771787737.4311757,684,2
3731,1771787737.4311945,675,2
3732,1771787737.4330027,668,2
3733,1771787737.4354126,655,2
3734,1771787737.4354286,648,2
3735,1771787737.4372697,639,2
3736,1771787737.4409068,633,1
3737,1771787737.4463274,625,1
3738,1771787737.5061717,617,1
3739,1771787737.5061927,607,1
3740,1771787737.5077496,597,1
3741,1771787737.5102277,583,1
3742,1771787737.5102408,572,1
3743,1771787737.5118656,560,1
3744,1771787737.5210726,551,1
3745,1771787737.5302856,542,1
3746,1771787737.5598376,536,1
3747,1771787737.5598807,529,1
3748,1771787737.5637956,527,1
3749,1771787737.5938904,525,1
3750,1771787737.5939326,527,1
3751,1771787737.5958598,527,1
3752,1771787737.5958905,528,1
3753,1771787737.6345696,527,1
3754,1771787737.6346016,530,1
3755,1771787737.6347766,528,1
3756,1771787737.6347907,529,1
3757,1771787737.6649806,527,1
3758,1771787737.6650116,527,1
3759,1771787737.6659675,523,1
3760,1771787737.6994526,520,1
3761,1771787737.6994886,515,1
3762,1771787737.6994996,512,1
3763,1771787737.7319965,504,1
3764,1771787737.7337437,500,1
3765,1771787737.7387936,494,1
3766,1771787737.7388196,489,1
3767,1771787737.7465835,483,1
3768,1771787737.8037395,480,1
3769,1771787737.8037727,473,1
3770,1771787737.8058116,470,1
3771,1771787737.8116765,463,1
3772,1771787737.8122046,461,1
3773,1771787737.8122175,458,0
3774,1771787737.8190145,460,1
3775,1771787737.8516226,459,1
3776,1771787737.8516536,461,1
3777,1771787737.8516798,459,0
3778,1771787737.8811755,457,0
3779,1771787737.8827035,455,1
3780,1771787737.8846245,455,0
3781,1771787737.8846476,451,0
3782,1771787737.9174135,451,0
3783,1771787737.9174488,448,1
3784,1771787737.9192727,448,0
3785,1771787737.9239357,443,1
3786,1771787737.9337986,444,0
3787,1771787737.9621685,443,1
3788,1771787737.9642596,443,0
3789,1771787737.9666116,439,0
3790,1771787737.9963045,438,0
3791,1771787737.9984875,436,1
3792,1771787737.9994717,439,0
3793,1771787738.0319886,438,0
3794,1771787738.0320296,439,0
3795,1771787738.0364156,436,1
3796,1771787738.0364447,438,0
3797,1771787738.0940297,437,0
3798,1771787738.0940554,439,0
3799,1771787738.0960095,438,0
3800,1771787738.0971615,441,0
3801,1771787738.0993977,439,0
3802,1771787738.1012096,441,0
3803,1771787738.1034844,439,1
3804,1771787738.1168256,440,0
3805,1771787738.1468296,437,0
3806,1771787738.1468675,440,0
3807,1771787738.1485026,440,1
3808,1771787738.1792336,443,0
3809,1771787738.1813805,446,0
3810,1771787738.1823475,455,1
3811,1771787738.2128184,464,1
3812,1771787738.2128587,483,1
3813,1771787738.2144215,502,1
3814,1771787738.2165885,528,1
3815,1771787738.2477927,556,1
3816,1771787738.2523096,588,1
3817,1771787738.2523377,618,1
3818,1771787738.2523665,646,2
3819,1771787738.2854137,667,2
3820,1771787738.2881584,681,2
3821,1771787738.2881866,688,2
3822,1771787738.3025196,694,2
3823,1771787738.3279297,690,2
3824,1771787738.3279705,686,2
3825,1771787738.3299844,676,1
3826,1771787738.3941016,666,2
3827,1771787738.3941414,652,2
3828,1771787738.3967817,641,2
3829,1771787738.3978255,627,1
3830,1771787738.3995485,618,1
3831,1771787738.4021556,606,1
3832,1771787738.4036665,597,1
3833,1771787738.4036815,584,1
3834,1771787738.4375615,574,1
3835,1771787738.4375956,563,1
3836,1771787738.4386187,556,1
3837,1771787738.4705076,545,1
3838,1771787738.4711926,539,1
3839,1771787738.4720404,532,1
3840,1771787738.4759517,531,1
3841,1771787738.5100355,527,1
3842,1771787738.5132256,531,1
3843,1771787738.5169475,531,1
3844,1771787738.5169716,533,1
3845,1771787738.5484076,531,1
3846,1771787738.5499744,532,1
3847,1771787738.5528765,532,1
3848,1771787738.5529006,531,1
3849,1771787738.5866854,529,1
3850,1771787738.5867105,530,1
3851,1771787738.5891705,526,1
3852,1771787738.6187956,525,1
3853,1771787738.6188295,520,1
3854,1771787738.6220024,518,1
3855,1771787738.6526227,512,1
3856,1771787738.6526635,508,1
3857,1771787738.7028415,503,1
3858,1771787738.7028825,502,1
3859,1771787738.7047234,496,1
3860,1771787738.7092395,492,1
3861,1771787738.7092717,484,0
3862,1771787738.7092867,483,1
3863,1771787738.7145457,478,1
3864,1771787738.7145596,474,1
3865,1771787738.7820065,470,1
3866,1771787738.7820437,469,1
3867,1771787738.8168707,464,1
3868,1771787738.8182735,463,1
3869,1771787738.8211126,457,0
3870,1771787738.8211446,456,1
3871,1771787738.8235147,453,1
3872,1771787738.8235347,454,1
3873,1771787738.8277764,449,1
3874,1771787738.8278065,448,0
3875,1771787738.8292763,445,0
3876,1771787738.8599405,446,0
3877,1771787738.8616314,443,0
3878,1771787738.8640347,444,0
3879,1771787738.8673625,442,1
3880,1771787738.8758335,442,0
3881,1771787738.9042225,441,0
3882,1771787738.9073455,441,0
3883,1771787738.9073668,439,0
3884,1771787738.9403524,440,0
3885,1771787738.9435275,437,0
3886,1771787738.9435415,440,0
3887,1771787738.9435494,440,0
3888,1771787738.9945195,440,0
3889,1771787738.9945757,439,0
3890,1771787738.9951875,440,0
3891,1771787738.9993086,439,1
3892,1771787739.0009134,440,0
3893,1771787739.0293686,440,0
3894,1771787739.0313816,444,0
3895,1771787739.0314105,441,1
3896,1771787739.0337574,441,0
3897,1771787739.0651736,439,0
3898,1771787739.0744996,439,0
3899,1771787739.0745306,435,0
3900,1771787739.0763505,435,0
3901,1771787739.1078384,433,0
3902,1771787739.1078777,434,0
3903,1771787739.1098917,431,1
3904,1771787739.1428366,432,0
3905,1771787739.1428773,435,0
3906,1771787739.1445944,441,0
3907,1771787739.1466026,448,1
3908,1771787739.1780925,460,1
3909,1771787739.1800015,476,1
3910,1771787739.1800237,498,1
3911,1771787739.1822865,521,1
3912,1771787739.2143044,548,1
3913,1771787739.2162716,573,0
3914,1771787739.2162948,600,1
3915,1771787739.2479334,620,2
3916,1771787739.2479753,639,2
3917,1771787739.2498214,651,2
3918,1771787739.3024125,659,2
3919,1771787739.3024535,660,2
3920,1771787739.3024685,660,2
3921,1771787739.3041365,654,2
3922,1771787739.3078206,650,2
3923,1771787739.3082745,639,2
3924,1771787739.3395724,630,1
3925,1771787739.3396087,616,1
3926,1771787739.3396196,608,1
3927,1771787739.3414545,596,1
3928,1771787739.3727674,586,1
3929,1771787739.3768997,572,1
3930,1771787739.3769286,561,1
3931,1771787739.4078505,548,0
3932,1771787739.4078925,537,1
3933,1771787739.4097285,524,1
3934,1771787739.4180596,518,1
3935,1771787739.4255764,512,1
3936,1771787739.4548786,508,1
3937,1771787739.4581506,505,1
3938,1771787739.4581766,507,1
3939,1771787739.4906454,504,1
3940,1771787739.4906886,507,1
3941,1771787739.4922636,505,1
3942,1771787739.4965305,508,1
3943,1771787739.5263145,507,1
3944,1771787739.5263555,509,1
3945,1771787739.5284145,507,1
3946,1771787739.5945575,508,1
3947,1771787739.5945935,505,1
3948,1771787739.5961976,504,1
3949,1771787739.5992603,500,1
